Wavelength(nm),Delta_epsilon(M^-1 cm^-1)
205.0,-23.064057325969575
205.48494983277592,-23.22964876585612
205.96989966555182,-23.35969437524377
206.45484949832775,-23.452693024534195
206.93979933110364,-23.507224282911967
207.42474916387962,-23.521957249684352
207.90969899665552,-23.495659249659308
208.39464882943145,-23.42720434177466
208.87959866220737,-23.315581589727696
209.36454849498324,-23.159903043173856
209.84949832775922,-22.959411378171918
210.33444816053506,-22.713487145955124
210.81939799331107,-22.421655579810157
211.30434782608688,-22.083592910845564
211.7892976588629,-21.699132144737177
212.27424749163882,-21.26826825314169
212.7591973244147,-20.79116273537672
213.24414715719064,-20.268147508170635
213.72909698996656,-19.699728083784525
214.21404682274246,-19.08658599959728
214.69899665551839,-18.429580465319074
215.1839464882943,-17.72974919734551
215.6688963210702,-16.98830841338254
216.15384615384613,-16.206651964343926
216.63879598662206,-15.386349584641227
217.12374581939804,-14.529144246336429
217.60869565217388,-13.636948607190831
218.0936454849499,-12.711840547411393
218.5785953177257,-11.756057794838286
219.0635451505017,-10.7719916434235
219.54849498327755,-9.762179775090509
220.03344481605353,-8.729298200418564
220.51839464882937,-7.67615233903059
221.00334448160535,-6.605667266056288
221.48829431438128,-5.520877156556575
221.9732441471572,-4.424913965299392
222.45819397993313,-3.320995384736513
222.94314381270902,-2.212412129404494
223.42809364548495,-1.1025146002245527
223.91304347826087,0.005301012735948931
224.39799331103677,1.1076071255974
224.88294314381267,2.200959586022013
225.36789297658862,3.2819128561739936
225.85284280936452,4.347035476872232
226.33779264214053,5.392925732899194
226.82274247491637,6.416227436235712
227.30769230769235,7.413645741259227
227.79264214046816,8.381962903718453
228.27759197324417,9.318053893617249
228.76254180602,10.218901771035648
229.24749163879602,11.081612733422691
229.73244147157192,11.903430743038216
230.21739130434784,12.681751644021018
230.70234113712377,13.414136680039757
231.18729096989966,14.09832532564483
231.6722408026756,14.732247347299438
232.1571906354515,15.314034013616563
232.6421404682274,15.842028378559979
233.12709030100334,16.314794566271193
233.61204013377926,16.731125991728707
234.09698996655516,17.09005245761087
234.58193979933108,17.3908460744746
235.066889632107,17.63302595863841
235.551839464883,17.81636166991696
236.03678929765883,17.940875359538214
236.5217391304348,18.006842607116333
237.00668896321065,18.01479193438922
237.49163879598666,17.96550299247557
237.9765886287625,17.860003428592144
238.46153846153848,17.699564447407216
238.9464882943144,17.48569509140931
239.4314381270903,17.220135273754448
239.91638795986623,16.90484760592767
240.40133779264215,16.542008071138127
240.88628762541805,16.133995602561537
241.37123745819397,15.683380633280015
241.8561872909699,15.192912691960801
242.3411371237458,14.665507124885513
242.82608695652172,14.104231030827805
243.31103678929765,13.512288500412637
243.79598662207366,12.893005255922459
244.28093645484947,12.249812790997858
244.76588628762545,11.58623211227391
245.2508361204013,10.905857186679192
245.7357859531773,10.212338198872194
246.22073578595314,9.509364723107929
246.70568561872915,8.800648912708505
247.19063545150496,8.089908808280649
247.67558528428094,7.380851862897664
248.16053511705687,6.677158778688948
248.6454849498328,5.982467744693837
249.1304347826087,5.300359160507168
249.6153846153846,4.634340924222565
250.10033444816054,3.9878343565532073
250.58528428093643,3.3641608258494946
251.07023411371236,2.7665291311314197
251.55518394648828,2.1980236923001932
252.04013377926418,1.6615935884860007
252.5250836120401,1.160042477124153
253.01003344481612,0.6960194179311664
253.49498327759193,0.27201061757676726
253.97993311036794,-0.1096678973876662
254.46488294314378,-0.4468766797767229
254.9498327759198,-0.7376583412921771
255.4347826086956,-0.9802421276595655
255.91973244147158,-1.1730476114679975
256.40468227424753,-1.3146875309727355
256.88963210702343,-1.403969808654905
257.3745819397993,-1.4398987881727539
257.8595317725753,-1.4216757324363587
258.3444816053512,-1.3486986288638094
258.8294314381271,-1.220561350396597
259.314381270903,-1.0370522225635521
259.7993311036789,-0.7981520477747329
260.2842809364548,-0.5040316381155256
260.7692307692308,-0.15504890721412437
261.25418060200667,0.2482544296926059
261.73913043478257,0.7051565005291709
262.2240802675586,1.2147592218384622
262.7090301003344,1.7759925041869176
263.1939799331104,2.3876186807192488
263.6789297658862,3.0482371264480244
264.1638795986622,3.756289040617105
264.64882943143806,4.51006236950562
265.13377926421407,5.307696852253096
265.61872909699,6.147189177590272
266.1036789297659,7.026398244659505
266.5886287625418,7.943050526307236
267.0735785953177,8.89474553823467
267.55852842809367,9.878961422113631
268.04347826086956,10.89306065512246
268.5284280936455,11.934295902253853
269.0133779264214,12.999816031115687
269.4983277591973,14.08667231172493
269.9832775919732,15.191824825920435
270.46822742474916,16.312149112450644
270.95317725752506,17.44444307448372
271.43812709030107,18.5854341762194
271.9230769230769,19.73178695443226
272.4080267558529,20.880110869149835
272.8929765886287,22.026968515264777
273.3779264214047,23.168884213726134
273.86287625418055,24.302352997081464
274.34782608695656,25.423849999586803
274.83277591973246,26.529840256926015
275.3177257525084,27.61678891484819
275.8026755852843,28.68117183980924
276.2876254180602,29.71948661808392
276.7725752508361,30.728263922877126
277.25752508361205,31.704079221811305
277.74247491638795,32.64356478989972
278.2274247491639,33.54342198583286
278.7123745819398,34.400433742223676
279.1973244147157,35.21147721347759
279.6822742474916,35.97353651828309
280.16722408026754,36.68371550746893
280.6521739130435,37.33925048223972
281.1371237458194,37.93752278268401
281.62207357859535,38.47607116203882
282.1070234113712,38.95260385857078
282.5919732441472,39.36501027417591
283.07692307692304,39.71137216697008
283.561872909699,39.989974264292705
284.04682274247494,40.199314202717844
284.53177257525084,40.3381117028959
285.0167224080268,40.40531688934195
285.5016722408027,40.40011766865465
285.9866220735786,40.32194608407585
286.4715719063545,40.17048356976809
286.95652173913044,39.94566503464934
287.44147157190633,39.64768171304043
287.9264214046823,39.27698272767739
288.4113712374582,38.8342753197535
288.8963210702341,38.32052371048975
289.38127090301,37.736946569195226
289.866220735786,37.08501307376933
290.3511705685618,36.36643756099232
290.83612040133784,35.58317277564299
291.3210702341137,34.737401739341614
291.8060200668897,33.83152827191102
292.29096989966547,32.86816620986393
292.7759197324415,31.850127378214268
293.26086956521743,30.78040838305917
293.74581939799333,29.662176303154077
294.2307692307692,28.49875336889075
294.7157190635452,27.293600726566947
295.2006688963211,26.050301394506263
295.685618729097,24.772542525342136
296.1705685618729,23.464097095541458
296.6555183946488,22.128805148920357
297.1404682274247,20.770554725448815
297.6254180602007,19.393262609981104
298.11036789297657,18.000855037660543
298.59531772575247,16.597248493594883
299.0802675585285,15.186330743974384
299.5652173913043,13.771942234108003
300.0501672240803,12.357857985906458
300.53511705685617,10.947770123161423
301.0200668896321,9.545271147614802
301.5050167224081,8.153838082326464
301.98996655518397,6.776817591302772
302.47491638795987,5.417412175825551
302.9598662207358,4.078667538498444
303.4448160535117,2.763461195815075
303.9297658862876,1.4744924091474327
304.41471571906357,0.21427349256674438
304.89966555183946,-1.0148774560384686
305.38461538461536,-2.210842366375214
305.8695652173913,-3.3717075280301905
306.3545150501672,-4.4957664345765584
306.8394648829431,-5.581521143040439
307.32441471571906,-6.627682164703363
307.80936454849495,-7.633166915393207
308.29431438127096,-8.597096765214289
308.7792642140468,-9.51879273898105
309.26421404682276,-10.397769929343022
309.7491638795986,-11.233730694636332
310.2341137123746,-12.026556722771508
310.7190635451505,-12.776300050900598
311.20401337792646,-13.483173138128974
311.68896321070235,-14.147538095086295
312.17391304347825,-14.769895179710629
312.6588628762542,-15.350870673080596
313.1438127090301,-15.891204252539012
313.628762541806,-16.391735981663153
314.11371237458195,-16.853393037854747
314.59866220735785,-17.277176298448712
315.08361204013374,-17.6641469052902
315.5685618729097,-18.015412925733447
316.0535117056856,-18.33211622500439
316.5384615384615,-18.615419660886463
317.02341137123744,-18.86649470678949
317.50836120401345,-19.08650960349926
317.99331103678924,-19.276618133349068
318.47826086956525,-19.437949103272967
318.9632107023411,-19.571596615270312
319.4481605351171,-19.678611194312708
319.933110367893,-19.759991834740045
320.41806020066895,-19.816679016809925
320.90301003344484,-19.849548735369797
321.38795986622074,-19.85940757270416
321.87290969899664,-19.846988837561373
322.3578595317726,-19.81294978226766
322.8428093645485,-19.757869899788567
323.3277591973244,-19.68225029267462
323.81270903010034,-19.5865140961213
324.29765886287623,-19.47100792795779
324.78260869565213,-19.33600432933404
325.2675585284281,-19.1817051512747
325.752508361204,-19.0082458341767
326.2374581939799,-18.815700519810925
326.7224080267559,-18.60408792850358
327.2073578595317,-18.373377927971138
327.69230769230774,-18.1234987148099
328.17725752508363,-17.854344524938345
328.6622073578596,-17.56578378538581
329.1471571906355,-17.257667616744943
329.6321070234114,-16.929838593373923
330.11705685618733,-16.58213966705839
330.60200668896323,-16.214423159328906
331.0869565217391,-15.826559727973164
331.5719063545151,-15.418447214472362
332.056856187291,-14.990019281112355
332.5418060200669,-14.541253749347252
333.0267558528428,-14.072180554594976
333.5117056856187,-13.582889236982586
333.9966555183946,-13.073535892593355
334.4816053511705,-12.544349515442116
334.9665551839465,-11.995637666670927
335.45150501672236,-11.427791414250326
335.9364548494984,-10.841289493725183
336.4214046822742,-10.236701648197474
336.9063545150502,-9.61469111370797
337.3913043478261,-8.97601622439937
337.876254180602,-8.321531120232706
338.36120401337797,-7.652185548508265
338.84615384615387,-6.969023758937383
339.33110367892976,-6.273182500434608
339.8160535117057,-5.565888136083076
340.3010033444816,-4.84845290078372
340.7859531772575,-4.12227033386262
341.27090301003346,-3.388809926307096
341.75585284280936,-2.6496110292626764
342.24080267558526,-1.9062760768873512
342.7257525083612,-1.1604631825696365
343.2107023411371,-0.4138781728188597
343.695652173913,0.3317338722130683
344.180602006689,1.0745974986606943
344.66555183946485,1.8129161031709096
345.15050167224086,2.544881422784505
345.6354515050167,3.268683210105386
346.12040133779266,3.9825190124391407
346.6053511705686,4.6846039734020755
347.0903010033445,5.373180576089374
347.5752508361204,6.046528248226622
348.06020066889636,6.7029727517956275
348.54515050167225,7.340895282388136
349.03010033444815,7.9587412069648495
349.5150501672241,8.555028372740287
350.0,9.128354924524087
