Wavelength(nm),Delta_epsilon(M^-1 cm^-1)
202.0,15.463409576697156
202.39464882943145,16.63399773243613
202.7892976588629,17.90355950009867
203.18394648829434,19.268360486604212
203.57859531772579,20.71997867752048
203.97324414715717,22.245234135197087
204.36789297658862,23.826842837731917
204.76254180602007,25.444915862582466
205.1571906354515,27.079254500534365
205.55183946488296,28.712153953879966
205.9464882943144,30.33118566661088
206.34113712374585,31.931281530191104
206.73578595317724,33.515489059674195
207.1304347826087,35.094039899210976
207.52508361204013,36.68180947207464
207.91973244147158,38.29469348203097
208.31438127090303,39.945720395998606
208.70903010033447,41.64175406322116
209.10367892976586,43.38142061749255
209.4983277591973,45.15451619787924
209.89297658862878,46.94275476101855
210.2876254180602,48.721419664425284
210.68227424749165,50.461359274023096
211.0769230769231,52.13082722881769
211.47157190635454,53.6968721764696
211.86622073578596,55.126251681486494
212.2608695652174,56.38608348440449
212.65551839464885,57.44456475307924
213.05016722408027,58.27203554822148
213.44481605351172,58.84244974150124
213.83946488294316,59.13502753604248
214.23411371237458,59.13562466178055
214.62876254180603,58.83728296699088
215.02341137123747,58.2395816643814
215.4180602006689,57.34674962959983
215.81270903010034,56.164903402839485
216.20735785953178,54.69908363737377
216.6020066889632,52.95084883284685
216.99665551839465,50.91701351889352
217.3913043478261,48.58975823815304
217.78595317725754,45.95793239420327
218.18060200668896,43.009069495964496
218.5752508361204,39.7315388643986
218.96989966555185,36.11638749153297
219.36454849498327,32.158717633895066
219.75919732441474,27.85878134231433
220.1538461538462,23.22321889950539
220.54849498327758,18.26691941764495
220.94314381270902,13.015798795065262
221.33779264214047,7.51041466907123
221.73244147157192,1.8098834844488043
222.12709030100336,-4.004820800285252
222.5217391304348,-9.829294143392342
222.91638795986626,-15.536885241652234
223.31103678929765,-20.983323381966958
223.7056856187291,-26.014934496403743
224.10033444816054,-30.47991255468721
224.49498327759198,-34.24140954689144
224.88963210702343,-37.19062556261499
225.28428093645488,-39.25781620113712
225.67892976588627,-40.41935540947832
226.0735785953177,-40.699719526538885
226.46822742474916,-40.16829994392244
226.8628762541806,-38.931962866048295
227.25752508361205,-37.12493069692114
227.6521739130435,-34.897716003961285
228.04682274247494,-32.40656931224415
228.44147157190636,-29.804411272987814
228.8361204013378,-27.233720153682132
229.23076923076925,-24.82147469404669
229.62541806020067,-22.676050705317383
230.02006688963212,-20.88589304444333
230.41471571906357,-19.519736354107344
230.80936454849498,-18.628036280411262
231.20401337792643,-18.24507845582087
231.59866220735788,-18.391044966710158
231.9933110367893,-19.07329795656213
232.38795986622074,-20.28641439468078
232.7826086956522,-22.01106047916625
233.17725752508363,-24.212437652145784
233.57190635451505,-26.839467491354824
233.9665551839465,-29.825853834116696
234.36120401337791,-33.09360210015348
234.75585284280936,-36.55867549659006
235.1505016722408,-40.137591002848794
235.54515050167225,-43.753270378969574
235.93979933110367,-47.33855456163289
236.33444816053512,-50.83640760936582
236.7290969899666,-54.1967235523607
237.12374581939798,-57.37047892701328
237.51839464882943,-60.30249163976051
237.91304347826087,-62.92417850735216
238.30769230769232,-65.14756808867223
238.70234113712377,-66.86163704687247
239.0969899665552,-67.9319487561534
239.4916387959866,-68.20455259521584
239.88628762541805,-67.51494858352531
240.2809364548495,-65.70239270975763
240.67558528428094,-62.62881287084482
241.0702341137124,-58.20028803816455
241.46488294314383,-52.38783181241469
241.85953177257528,-45.243621468552334
242.25418060200667,-36.90916352990558
242.64882943143812,-27.613160051264998
243.04347826086956,-17.658646044552942
243.438127090301,-7.400772926472552
243.83277591973246,2.781985621092358
244.2274247491639,12.519566613961535
244.6220735785953,21.48098806577405
245.01672240802674,29.400061723558043
245.4113712374582,36.09289288206883
245.80602006688966,41.46514700986738
246.20066889632108,45.50878077775035
246.59531772575252,48.28977082510563
246.9899665551839,49.9298225552271
247.38461538461536,50.585694230924275
247.7792642140468,50.42951296064848
248.17391304347825,49.632502028171764
248.5685618729097,48.35329343387427
248.96321070234114,46.73087239463802
249.3578595317726,44.88144562761487
249.75250836120404,42.89820093353776
250.14715719063548,40.85294354953478
250.54180602006693,38.798803285389326
250.93645484949838,36.77346081969458
251.33110367892976,34.802542800098635
251.7257525083612,32.90294306541269
252.1204013377926,31.08585457329524
252.51505016722405,29.359292163159502
252.9096989966555,27.729905890008272
253.30434782608694,26.2039623531627
253.69899665551839,24.787503949191464
254.09364548494983,23.485847706645686
254.48829431438128,22.302708163281512
254.88294314381272,21.2392834973185
255.27759197324417,20.293614376305403
255.67224080267562,19.460420499216365
256.06688963210706,18.731471597243374
256.46153846153845,18.09639906600459
256.8561872909699,17.54374040503745
257.2508361204013,17.061958661691577
257.64548494983273,16.640204871796644
258.0401337792642,16.26868684867844
258.4347826086956,15.938645887384446
258.8294314381271,15.642078523806155
259.2240802675585,15.371421753470326
259.61872909698997,15.119411918706563
260.0133779264214,14.879231970265971
260.40802675585286,14.64492188736379
260.8026755852843,14.411906151247484
261.1973244147158,14.177441170937456
261.59197324414714,13.940817974205808
261.9866220735786,13.70324630310674
262.38127090301,13.467451012915898
262.7759197324414,13.23708957360233
263.17056856187287,13.016128041222002
263.5652173913043,12.80829203787645
263.95986622073576,12.616657600227162
264.3545150501672,12.44339142477515
264.74916387959865,12.289613810121594
265.14381270903016,12.155349107591118
265.53846153846155,12.039541454854595
265.93311036789305,11.94013384121727
266.3277591973245,11.854222886553066
266.72240802675583,11.778302831929564
267.11705685618733,11.7085994352909
267.51170568561867,11.64147199690246
267.9063545150501,11.573837055203592
268.3010033444816,11.503549357967566
268.695652173913,11.429672656509295
269.0903010033445,11.352588807950115
269.48494983277595,11.273925974322582
269.8795986622074,11.196325857172415
270.27424749163885,11.123103099391804
270.6688963210703,11.057867082596923
271.06354515050174,11.00417453067496
271.4581939799331,10.965265406532966
271.8528428093646,10.943913047659084
272.247491638796,10.942399354831545
272.64214046822735,10.962609724704603
273.03678929765886,11.006229002040003
273.4314381270903,11.075006828197377
273.82608695652175,11.171048452667376
274.2207357859532,11.297078792849852
274.61538461538464,11.456628161041394
275.0100334448161,11.654100087679348
275.40468227424753,11.8947020468001
275.799331103679,12.184240680997693
276.1939799331104,12.528795894066723
276.5886287625419,12.934289625915229
276.98327759197326,13.405959882883302
277.37792642140465,13.947749181076645
277.7725752508361,14.561629555419463
278.16722408026754,15.246917952541535
278.561872909699,15.999680375453822
278.95652173913044,16.81236578709524
279.3511705685619,17.673833281731305
279.74581939799333,18.56992359571405
280.1404682274248,19.4846708457318
280.5351170568562,20.402150757647007
280.92976588628767,21.30882171907234
281.3244147157191,22.19605160354162
281.71906354515056,23.06237792315263
282.11371237458195,23.914989173113778
282.50836120401334,24.77000948051327
282.9030100334448,25.651435576177484
283.29765886287623,26.588943691666735
283.6923076923077,27.615107422406716
284.0869565217391,28.762699891219402
284.4816053511706,30.062639724636593
284.876254180602,31.542849571790708
285.27090301003346,33.22797179587897
285.6655518394649,35.13965749153828
286.06020066889636,37.29706479387157
286.4548494983278,39.71724454713916
286.8494983277592,42.415190088507565
287.24414715719064,45.40342151519141
287.63879598662203,48.691030857359266
288.0334448160535,52.28213318504209
288.4280936454849,56.173672098220294
288.82274247491637,60.35254611817671
289.2173913043478,64.79208169238998
289.61204013377926,69.44799818238981
290.0066889632107,74.25420270236724
290.40133779264215,79.11901890359172
290.7959866220736,83.92276667853704
291.19063545150505,88.51788949885518
291.5852842809365,92.73292656305595
291.9799331103679,96.38136179263242
292.3745819397993,99.27560870171152
292.7692307692307,101.24513452986649
293.16387959866216,102.15627482354961
293.5585284280936,101.93015718760162
293.95317725752506,100.5548880748087
294.3478260869565,98.0890480797011
294.74247491638795,94.65541671050968
295.1371237458194,90.42611170823562
295.53177257525084,85.60223022410777
295.9264214046823,80.39204086219883
296.32107023411373,74.99159610809618
296.7157190635452,69.57051149424781
297.11036789297657,64.26406009945134
297.505016722408,59.17119960877503
297.8996655518394,54.35709898866429
298.29431438127085,49.85832875208946
298.6889632107023,45.689037218836646
299.08361204013374,41.84691805288197
299.4782608695652,38.318326065804285
299.87290969899664,35.08234097660667
300.26755852842814,32.11384350079638
300.66220735785953,29.385772755173672
301.05685618729103,26.870738547108466
301.4515050167225,24.542127615756804
301.8461538461539,22.374808257288993
302.2408026755853,20.345516803109987
302.6354515050167,18.432999767331058
303.0301003344481,16.61797977133582
303.42474916387954,14.883006255848139
303.819397993311,13.21224205907785
304.2140468227425,11.591225395046797
304.60869565217394,10.006635626581112
305.0033444816054,8.446082080141931
305.3979933110368,6.897928764105693
305.7926421404683,5.3511643104305895
306.1872909698997,3.7953254509903
306.58193979933117,2.220483408400551
306.9765886287626,0.617305255458519
307.371237458194,-1.0227938985919438
307.76588628762545,-2.707387669918626
308.16053511705684,-4.442639782495244
308.5551839464883,-6.232743234926811
308.94983277591973,-8.0791716340037
309.3444816053512,-9.979725263258047
309.7391304347826,-11.927374124537735
310.13377926421407,-13.908936876879798
310.5284280936455,-15.90369367253793
310.92307692307696,-17.882114826424235
311.3177257525084,-19.804990803530735
311.71237458193986,-21.62335266141112
312.1070234113713,-23.279636257026436
312.5016722408027,-24.71050906318778
312.8963210702341,-25.851581426457404
313.2909698996655,-26.643830283279684
313.685618729097,-27.041015040733317
314.0802675585284,-27.01681331596058
314.47491638795987,-26.570084717195243
314.8695652173913,-25.726806682154354
315.26421404682276,-24.537888814416455
315.6588628762542,-23.073094313410877
316.05351170568565,-21.412320171428053
316.4481605351171,-19.63613105694902
316.84280936454854,-17.81749045674166
317.23745819398,-16.016124830588947
317.6321070234114,-14.276129858064499
318.02675585284277,-12.626582390544126
318.4214046822742,-11.084292983397669
318.81605351170566,-9.657536600792076
319.2107023411371,-8.349639273356322
319.60535117056855,-7.161609709748822
320.0,-6.093472151227359
