Wavelength(nm),Delta_epsilon(M^-1 cm^-1)
205.0,-17.805854200678162
205.48494983277592,-17.723542308912887
205.96989966555182,-17.614588894888485
206.45484949832772,-17.480919958311993
206.93979933110361,-17.324701086608368
207.4247491638795,-17.148316968024815
207.90969899665544,-16.95434762231494
208.39464882943133,-16.74554158854282
208.87959866220734,-16.524786363383768
209.36454849498324,-16.29507643385156
209.84949832775914,-16.059479294632226
210.33444816053515,-15.821099881182754
210.81939799331104,-15.583043884572474
211.30434782608694,-15.348380441903373
211.78929765886286,-15.120104716368827
212.27424749163876,-14.901100893048719
212.75919732441466,-14.694106119991858
213.24414715719055,-14.501675918764649
213.72909698996645,-14.326151574377302
214.21404682274238,-14.169629991427216
214.69899665551836,-14.033936471711453
215.18394648829428,-13.920600828882357
215.66889632107018,-13.830837208578005
216.1538461538462,-13.765527928605087
216.63879598662209,-13.725211594090249
217.12374581939798,-13.71007567807558
217.60869565217388,-13.719953689940434
218.0936454849498,-13.754326983491454
218.5785953177257,-13.812331184843814
219.0635451505016,-13.892767148606637
219.5484949832775,-13.994116280681634
220.0334448160534,-14.114559998458716
220.5183946488294,-14.252003035560783
221.0033444816053,-14.404100239700387
221.4882943143813,-14.568286459703662
221.9732441471572,-14.741809072256146
222.45819397993313,-14.921762661210224
222.94314381270902,-15.105125332997739
223.42809364548492,-15.288796131264805
223.91304347826082,-15.469633002580395
224.3979933110367,-15.64449076306763
224.88294314381264,-15.810258522990376
225.36789297658854,-15.963896042446605
225.85284280936446,-16.102468515956907
226.33779264214044,-16.223179316309757
226.82274247491634,-16.323400267817583
227.30769230769235,-16.400699065304135
227.79264214046825,-16.452863506728534
228.27759197324417,-16.4779222633288
228.76254180602007,-16.474161970429297
229.24749163879596,-16.44014048348026
229.73244147157186,-16.37469620633149
230.21739130434776,-16.276953461054564
230.70234113712365,-16.146323929712715
231.18729096989958,-15.982504257296513
231.67224080267556,-15.78546996061903
232.15719063545146,-15.55546583942041
232.64214046822738,-15.292993132499761
233.12709030100336,-14.998793702717437
233.6120401337793,-14.673831569671055
234.09698996655518,-14.319272137357709
234.5819397993311,-13.936459485937423
235.066889632107,-13.526892111699846
235.5518394648829,-13.092197507522222
236.0367892976588,-12.634105977645717
236.5217391304347,-12.154424075751804
237.0066889632106,-11.65500804446961
237.4916387959866,-11.137737618064879
237.9765886287625,-10.604490528704236
238.4615384615384,-10.057118030979348
238.9464882943144,-9.497421729996756
239.4314381270903,-8.927131965992473
239.91638795986623,-8.34788797385742
240.40133779264212,-7.761219999893608
240.88628762541805,-7.168533521285104
241.37123745819395,-6.571095676866678
241.85618729096984,-5.970023981471597
242.34113712374574,-5.366277361048429
242.82608695652164,-4.760649512416464
243.31103678929765,-4.153764560472077
243.79598662207354,-3.5460749572771837
244.28093645484944,-2.9378615421017025
244.76588628762545,-2.3292356594177055
245.25083612040135,-1.7201432132294228
245.73578595317724,-1.1103705210780803
246.22073578595317,-0.4995518196056455
246.70568561872906,0.11282173435338078
247.190635451505,0.7273917276787103
247.67558528428088,1.3449209816480754
248.16053511705678,1.9662810294354525
248.64548494983268,2.592438736006218
249.1304347826087,3.2244422091563565
249.61538461538458,3.8634061415936327
250.10033444816048,4.510496713480641
250.5852842809365,5.166916173156616
251.0702341137124,5.833887201244453
251.55518394648828,6.512637150439993
252.04013377926418,7.204382240374106
252.5250836120401,7.910311774430764
253.010033444816,8.631572433653137
253.49498327759193,9.369252692213667
253.97993311036782,10.124367389669636
254.46488294314372,10.897842487621865
254.94983277591973,11.690500032670391
255.43478260869563,12.503043343873147
255.91973244147164,13.336042441386326
256.40468227424753,14.189919733650756
256.88963210702343,15.064935983407949
257.3745819397993,15.961176577915381
257.8595317725752,16.87853813589913
258.3444816053511,17.81671549285422
258.829431438127,18.77518911709161
259.3143812709029,19.753213021147783
259.79933110367887,20.74980324654501
260.28428093645476,21.76372701404143
260.7692307692307,22.793492646082953
261.25418060200667,23.837340382734727
261.7391304347826,24.893234226510376
262.2240802675586,25.958854964769948
262.7090301003345,27.03159453028371
263.19397993311037,28.108551870693013
263.67892976588627,29.18653050550723
264.16387959866216,30.262037954535984
264.64882943143806,31.331287223878334
265.133779264214,32.390200534411385
265.6187290969899,33.434415472860884
266.1036789297658,34.459293736715125
266.5886287625418,35.45993263130646
267.0735785953177,36.43117946019795
267.5585284280937,37.36764892855956
268.0434782608696,38.26374365352538
268.5284280936455,39.113677845750345
269.0133779264214,39.911504192729915
269.4983277591973,40.65114393723516
269.9832775919732,41.32642010384257
270.4682274247491,41.93109378348556
270.953177257525,42.45890334078144
271.4381270903009,42.90360636224079
271.9230769230769,43.25902411602868
272.4080267558528,43.519088246486206
272.8929765886287,43.67788937992913
273.3779264214047,43.7297272731333
273.8628762541806,43.669162093253874
274.3478260869565,43.49106637852279
274.83277591973246,43.19067719377009
275.31772575250835,42.76364796439423
275.80267558528425,42.20609944761059
276.28762541806014,41.51466928131531
276.77257525083604,40.68655953929387
277.25752508361194,39.71958171729252
277.74247491638795,38.61219857803837
278.22742474916384,37.363562294913265
278.71237458193974,35.973548353793724
279.19732441471575,34.442784700584
279.68227424749165,32.7726756580353
280.1672240802676,30.965420179303788
280.6521739130435,29.02402405692369
281.1371237458194,26.952305763905674
281.6220735785953,24.754895667821827
282.1070234113712,22.437228428220333
282.5919732441471,20.005528461561532
283.076923076923,17.466788435128755
283.561872909699,14.828740830892102
284.0468227424749,12.099822700982603
284.5317725752509,9.289133817048517
285.0167224080268,6.406388495130925
285.5016722408027,3.4618614545706636
285.9866220735786,0.46632814270898293
286.4715719063545,-2.5689999744082312
286.95652173913044,-5.632544592498211
287.44147157190633,-8.712433602071632
287.92642140468223,-11.796577307302472
288.4113712374581,-14.87274712435737
288.896321070234,-17.92865602215018
289.38127090301003,-20.95203994735311
289.86622073578593,-23.9307394641284
290.35117056856194,-26.85278083761435
290.83612040133784,-29.706455798639325
291.32107023411373,-32.48039924530138
291.80602006688963,-35.163664164515495
292.2909698996655,-37.7457930929612
292.7759197324415,-40.21688548134311
293.2608695652174,-42.56766037778164
293.7458193979933,-44.78951390454156
294.23076923076917,-46.87457106624681
294.71571906354507,-48.81573149610722
295.2006688963211,-50.606708818427464
295.685618729097,-52.24206337960223
296.170568561873,-53.71722817478822
296.6555183946489,-55.02852787231183
297.1404682274248,-56.17319091154875
297.6254180602007,-57.14935472138973
298.11036789297657,-57.95606417455032
298.59531772575247,-58.59326345695226
299.08026755852836,-59.06178159044469
299.5652173913043,-59.36331190054113
300.0501672240802,-59.50038576810811
300.5351170568561,-59.47634104460782
301.0200668896321,-59.29528554432967
301.505016722408,-58.96205605388991
301.989966555184,-58.48217331914121
302.4749163879599,-57.861793482663394
302.9598662207358,-57.1076564514504
303.4448160535117,-56.22703167465552
303.9297658862876,-55.22766180578261
304.4147157190635,-54.117704713085516
304.8996655518394,-52.905674286808626
305.38461538461536,-51.600380472962364
305.86956521739125,-50.210868941316555
306.35451505016715,-48.74636077097638
306.83946488294316,-47.21619251102081
307.32441471571906,-45.629756947001034
307.80936454849507,-43.9964448772875
308.29431438127096,-42.3255881770153
308.77926421404686,-40.62640440226209
309.26421404682276,-38.907943163644376
309.74916387959865,-37.17903447714346
310.23411371237455,-35.44823928099327
310.71906354515045,-33.7238022911308
311.20401337792634,-32.013607354090084
311.68896321070224,-30.325135445369195
312.17391304347825,-28.665425453080562
312.65886287625415,-27.04103788091518
313.14381270903004,-25.458021600810973
313.62876254180605,-23.921883783832822
314.11371237458195,-22.4375631371695
314.5986622073579,-21.009406575323926
315.0836120401338,-19.641149453948316
315.5685618729097,-18.33589949473539
316.0535117056856,-17.096124528741424
316.5384615384615,-15.92364418284863
317.0234113712374,-14.819625629215631
317.5083612040133,-13.784583509960504
317.99331103678924,-12.818384138488824
318.4782608695652,-11.920254064422448
318.9632107023412,-11.088793070671352
319.4481605351171,-10.321991648610748
319.933110367893,-9.617252970474059
320.41806020066895,-8.971419346961172
320.90301003344484,-8.380803122831324
321.38795986622074,-7.841221924170233
321.87290969899664,-7.348038128481841
322.35785953177253,-6.896202383276705
322.84280936454843,-6.480300951033036
323.3277591973243,-6.094606609042369
323.81270903010034,-5.73313278253088
324.29765886287623,-5.3896905394866845
324.78260869565224,-5.057948026774452
325.26755852842814,-4.731491880389347
325.75250836120404,-4.4038900990996055
326.23745819397993,-4.068755831271594
326.72240802675583,-3.7198114903365833
327.2073578595318,-3.350952586077006
327.6923076923077,-2.956310637536898
328.1772575250836,-2.5303145196547185
328.6622073578595,-2.067749590313965
329.14715719063537,-1.563813947924767
329.6321070234114,-1.01417118223408
330.1170568561873,-0.41499900301929826
330.6020066889633,0.23696683733477975
331.0869565217392,0.9443938707865941
331.5719063545151,1.709319984035986
332.056856187291,2.5331266683932196
332.5418060200669,3.4165188195291605
333.0267558528428,4.3595113850201646
333.5117056856187,5.361423079213005
333.9966555183946,6.420877301765023
334.4816053511705,7.535810309505211
334.9665551839464,8.703486602309946
335.4515050167224,9.920521393893802
335.9364548494983,11.182909949179097
336.42140468227433,12.486063482671529
336.9063545150502,13.824851228424166
337.3913043478261,15.193648213106119
337.876254180602,16.586388190666494
338.3612040133779,17.996621131323295
338.8461538461538,19.417574600159856
339.3311036789297,20.842218312423952
339.81605351170566,22.263331114459817
340.30100334448156,23.67356961166274
340.78595317725745,25.065537648340527
341.27090301003346,26.431855839112437
341.7558528428094,27.76523035750064
342.24080267558537,29.058520204500603
342.72575250836127,30.304802207793074
343.21070234113716,31.497433040337082
343.69565217391306,32.63010759466071
344.18060200668896,33.696913105361546
344.66555183946485,34.692378476162375
345.15050167224075,35.611518338211354
345.63545150501665,36.449871441973706
346.1204013377926,37.20353306475482
346.6053511705685,37.8691811983162
347.0903010033445,38.44409636485416
347.57525083612046,38.92617499348973
348.0602006688964,39.31393637207165
348.5451505016723,39.6065232692859
349.0301003344482,39.80369639863159
349.5150501672241,39.90582296770454
350.0,39.91385962246241
