Wavelength(nm),Delta_epsilon(M^-1 cm^-1)
202.0,14.623736653021892
202.39464882943142,14.972257671358987
202.7892976588629,15.290517574491806
203.18394648829428,15.574850667817877
203.57859531772576,15.821791516589109
203.97324414715717,16.028094251379613
204.36789297658862,16.19073762918725
204.76254180602007,16.306919070300868
205.15719063545149,16.374042192022348
205.55183946488296,16.38970290776183
205.94648829431435,16.351678917917937
206.34113712374582,16.257926508972783
206.73578595317724,16.10658724010858
207.1304347826087,15.89600562942942
207.52508361204013,15.624757638602707
207.91973244147155,15.29168880757208
208.31438127090303,14.895960413641022
208.70903010033442,14.43710200748618
209.1036789297659,13.915068995409923
209.4983277591973,13.330304403738515
209.89297658862876,12.683804356002984
210.2876254180602,11.977186900098669
210.68227424749165,11.212763465810145
211.0769230769231,10.393611312159644
211.47157190635448,9.523643843593518
211.86622073578596,8.607673768915923
212.26086956521738,7.651462022280037
212.65551839464882,6.6617435609320355
213.05016722408027,5.646220072200018
213.44481605351172,4.613509720285495
213.83946488294316,3.573045673169108
214.23411371237455,2.5349183651574445
214.62876254180603,1.5096610509629969
215.02341137123744,0.5079836490997288
215.4180602006689,-0.4595346339434794
215.81270903010034,-1.3827787402289575
216.20735785953178,-2.25243902254035
216.60200668896323,-3.060341068093984
216.99665551839462,-3.799745867745586
217.3913043478261,-4.465604837683314
217.7859531772575,-5.054757885913322
218.18060200668896,-5.5660665546814645
218.5752508361204,-6.000477600370794
218.96989966555185,-6.361014872245345
219.3645484949833,-6.652699116263078
219.75919732441469,-6.882396806465176
220.15384615384616,-7.058600897770023
220.54849498327758,-7.191149003674666
220.94314381270902,-7.290888099961568
221.33779264214047,-7.3692991505078345
221.73244147157192,-7.43809932199794
222.12709030100334,-7.508842727134015
222.52173913043475,-7.59254195962643
222.91638795986623,-7.699331414448928
223.31103678929765,-7.838189396332629
223.7056856187291,-8.016729776958261
224.10033444816054,-8.241066460668586
224.49498327759198,-8.515746478390263
224.8896321070234,-8.84374151037673
225.28428093645482,-9.226484139776812
225.6789297658863,-9.663934741689534
226.0735785953177,-10.154667525245737
226.46822742474916,-10.695969098393634
226.8628762541806,-11.283948714681555
227.25752508361205,-11.913664539412018
227.65217391304347,-12.579273403679371
228.0468227424749,-13.274211633875613
228.44147157190636,-13.991411419272954
228.83612040133778,-14.72355140597778
229.23076923076923,-15.463333087849572
229.62541806020067,-16.203767810843356
230.02006688963212,-16.93845449221465
230.41471571906354,-17.661826686077866
230.80936454849495,-18.36934982092485
231.2040133779264,-19.05765482174182
231.59866220735785,-19.724601686417753
231.9933110367893,-20.369274270013882
232.38795986622074,-20.991913899508585
232.7826086956522,-21.593803249930605
233.1772575250836,-22.177112583390755
233.57190635451502,-22.74471818367309
233.96655518394647,-23.299998523978118
234.36120401337791,-23.84660881661583
234.75585284280936,-24.388230772078472
235.1505016722408,-24.928293185620515
235.54515050167225,-25.469661442198497
235.93979933110367,-26.014300462746565
236.3344481605351,-26.56292528384683
236.72909698996654,-27.114664628003627
237.12374581939798,-27.666772952664395
237.51839464882943,-28.214432724519764
237.91304347826087,-28.750688564901736
238.30769230769232,-29.266547005343252
238.70234113712374,-29.751259996679888
239.0969899665552,-30.19278889931568
239.4916387959866,-30.578421822163186
239.88628762541808,-30.895495101231415
240.2809364548495,-31.132153575174424
240.67558528428094,-31.278077259968537
241.0702341137124,-31.325105425952884
241.4648829431438,-31.26770224742129
241.85953177257522,-31.103228568896224
242.25418060200667,-30.832008132263294
242.64882943143814,-30.457199733091965
243.04347826086956,-29.984505696636248
243.438127090301,-29.421759490822996
243.83277591973246,-28.77844044070745
244.22742474916384,-28.06516198719794
244.6220735785953,-27.29317334607587
245.01672240802674,-26.473904839412977
245.4113712374582,-25.618576624995953
245.8060200668897,-24.73788068352572
246.20066889632108,-23.841737812997188
246.59531772575252,-22.939125518614166
246.9899665551839,-22.03796908829154
247.38461538461536,-21.14508649496606
247.7792642140468,-20.266177584037738
248.17391304347828,-19.405848761615488
248.56856187290975,-18.567665617292782
248.96321070234114,-17.75422721136419
249.3578595317726,-16.967256867906777
249.75250836120398,-16.207705102503724
250.14715719063543,-15.475860750644406
250.54180602006687,-14.771466516469411
250.93645484949835,-14.09383515931619
251.33110367892982,-13.441962528524083
251.7257525083612,-12.81463378067924
252.12040133779266,-12.210519456457611
252.51505016722405,-11.628258681066932
252.9096989966555,-11.066527544747919
253.30434782608694,-10.52409163369259
253.6989966555184,-9.999842613159535
254.09364548494986,-9.492819616405267
254.48829431438125,-9.002216893978723
254.88294314381272,-8.527379689772893
255.2775919732441,-8.067790624170218
255.67224080267556,-7.623048990796516
256.066889632107,-7.192845330021706
256.46153846153845,-6.776933449505936
256.85618729096996,-6.375101742293002
257.25083612040135,-5.98714523654812
257.6454849498328,-5.6128393421347464
258.0401337792642,-5.251915797057209
258.4347826086956,-4.904040929717607
258.8294314381271,-4.568796105366882
259.2240802675585,-4.24566016113385
259.61872909699,-3.933993762738596
260.0133779264214,-3.633025903972655
260.40802675585286,-3.3418431435765883
260.80267558528425,-3.059382532227775
261.1973244147157,-2.7844294175559314
261.59197324414714,-2.515621337907058
261.9866220735786,-2.2514589759026844
262.3812709030101,-1.990324643352631
262.7759197324415,-1.7305080666893675
263.1705685618729,-1.470238437577208
263.5652173913043,-1.2077209119123187
263.95986622073576,-0.9411751082363757
264.3545150501672,-0.6688727783437495
264.74916387959865,-0.38917176448267515
265.14381270903016,-0.10054363619924318
265.53846153846155,0.19840701779813522
265.933110367893,0.5089328589045511
266.3277591973244,0.8321439189605642
266.72240802675583,1.1690169386029425
267.1170568561873,1.5204124840866022
267.5117056856187,1.8870978010316903
267.9063545150502,2.2697730167402868
268.3010033444816,2.669098221422723
268.69565217391306,3.0857191179847274
269.0903010033445,3.520289281298672
269.4849498327759,3.9734875523427267
269.87959866220734,4.4460296532054455
270.2742474916388,4.938673697453926
270.6688963210703,5.452219848340875
271.0635451505017,5.987504912198312
271.4581939799331,6.545393112604839
271.8528428093646,7.126764631736279
272.24749163879596,7.732503678060568
272.6421404682274,8.363487787224434
273.03678929765886,9.02057973279896
273.43143812709036,9.704622783118236
273.82608695652175,10.416439096002645
274.2207357859532,11.156829854283037
274.61538461538464,11.926574429804406
275.01003344481603,12.726424589807042
275.4046822742475,13.557088721545194
275.7993311036789,14.41920043593319
276.1939799331104,15.313265863931065
276.5886287625418,16.239584556741846
276.98327759197326,17.19814014112247
277.3779264214047,18.188458694526183
277.7725752508361,19.209435078205495
278.16722408026754,20.259130072450414
278.561872909699,21.33454397818242
278.9565217391305,22.431375282213292
279.3511705685619,23.54377594003421
279.74581939799333,24.664117714762288
280.1404682274248,25.7827867020865
280.53511705685617,26.888025501200396
280.9297658862876,27.96584423188857
281.32441471571906,29.000022445459326
281.71906354515056,29.972223548619635
282.11371237458195,30.862241197623035
282.5083612040134,31.648392732023897
282.90301003344484,32.30806765982152
283.29765886287623,32.818429225940974
283.6923076923077,33.15725431151469
284.0869565217391,33.303881983185946
284.4816053511706,33.24022524289543
284.87625418060196,32.951785824945276
285.27090301003346,32.4286005429835
285.6655518394649,31.6660420197933
286.0602006688963,30.66539852272268
286.45484949832775,29.43416810700004
286.8494983277592,27.98602121226536
287.24414715719064,26.340411876278452
287.63879598662203,24.521848279172406
288.03344481605353,22.558865007637777
288.428093645485,20.482768410580604
288.82274247491637,18.326248999412606
289.2173913043478,16.121967980676235
289.61204013377926,13.90122679106631
290.0066889632107,11.692818503257653
290.4013377926421,9.522139340607144
290.7959866220736,7.410609885687829
291.19063545150505,5.375422576185553
291.58528428093643,3.4295989671235327
291.9799331103679,1.5823111150429567
292.3745819397993,-0.16060028786703384
292.7692307692308,-1.7959905211289284
293.16387959866216,-3.3227394395582035
293.55852842809367,-4.741117469656706
293.9531772575251,-6.052246903627523
294.3478260869565,-7.257696092934552
294.74247491638795,-8.359222175595438
295.1371237458194,-9.358657311819417
295.53177257525084,-10.257916455091086
295.92642140468223,-11.059093039379304
296.32107023411373,-11.76460330270977
296.7157190635452,-12.377340117669899
297.11036789297657,-12.900802267472592
297.505016722408,-13.339173688706737
297.89966555183946,-13.697337631389779
298.2943143812709,-13.980821290155907
298.68896321070235,-14.195675798169432
299.0836120401338,-14.348303528130126
299.47826086956525,-14.445248912457613
299.87290969899664,-14.492970495160597
300.2675585284281,-14.497611102184594
300.66220735785953,-14.464780573388579
301.056856187291,-14.399362237378043
301.4515050167224,-14.305350966608485
301.8461538461538,-14.185727790046826
302.2408026755853,-14.042374006612535
302.6354515050167,-13.87602664911675
303.03010033444815,-13.686276909239506
303.4247491638796,-13.471613504485788
303.81939799331104,-13.229513590183542
304.2140468227425,-12.956584266327207
304.6086956521739,-12.648757548561077
305.0033444816054,-12.301540439480386
305.39799331103677,-11.910319116289363
305.7926421404682,-11.470712079450886
306.18729096989966,-10.978961477058773
306.5819397993311,-10.432345156722329
306.97658862876256,-9.829585094430076
307.37123745819395,-9.17122183237731
307.76588628762545,-8.459920744396053
308.16053511705684,-7.700675617738549
308.5551839464883,-6.90087913131582
308.94983277591973,-6.070238620242983
309.3444816053512,-5.220528494875395
309.7391304347826,-4.365186401593033
310.133779264214,-3.5187765518688767
310.5284280936455,-2.6963581710577955
310.9230769230769,-1.912807464812496
311.31772575250835,-1.1821462408921026
311.7123745819398,-0.5169286900120331
312.10702341137124,0.07226977820550386
312.5016722408027,0.5772299843116885
312.8963210702341,0.9923159345392882
313.2909698996656,1.3145498093418668
313.685618729097,1.5435471827284877
314.0802675585284,1.68133513331972
314.47491638795987,1.7320822650928822
314.8695652173913,1.7017717321793593
315.26421404682276,1.5978466257798691
315.65886287625415,1.4288524693288867
316.05351170568565,1.204095267589549
316.44816053511704,0.9333267843267345
316.8428093645485,0.6264625457951319
317.23745819397993,0.29333326435105567
317.6321070234114,-0.056532623134891755
318.0267558528428,-0.41409873838071576
318.4214046822742,-0.7709858252988263
318.8160535117057,-1.1196134753997085
319.2107023411371,-1.4533178654512335
319.60535117056855,-1.7664430344284292
320.0,-2.0544021590795656
