Wavelength(nm),Delta_epsilon(M^-1 cm^-1)
205.0,-37.1239637673141
205.48494983277587,-38.400725987152725
205.96989966555185,-39.456623817648335
206.45484949832783,-40.22314508643851
206.9397993311037,-40.62696511151675
207.42474916387957,-40.59341430050194
207.90969899665555,-40.05127796086239
208.3946488294315,-38.93878803404347
208.87959866220737,-37.21039817303408
209.36454849498327,-34.843646187949226
209.84949832775914,-31.845171200773297
210.3344481605351,-28.25484931913665
210.81939799331107,-24.147111768199544
211.30434782608694,-19.628842055761915
211.7892976588628,-14.833777594437262
212.2742474916388,-9.913960535339521
212.75919732441477,-5.02933990694189
213.24414715719064,-0.33696964202847346
213.7290969899665,4.018724357632982
214.2140468227425,7.913426566423109
214.69899665551847,11.247502456270183
215.18394648829434,13.947590517780068
215.6688963210702,15.965656455981536
216.1538461538462,17.276261412987
216.63879598662206,17.872880678692056
217.123745819398,17.764011897695706
217.6086956521739,16.969618487080748
218.09364548494977,15.518252257127443
218.57859531772573,13.445046226483898
219.0635451505017,10.7906779605093
219.54849498327758,7.6013505966716295
220.03344481605345,3.929777866678441
220.51839464882943,-0.16295087572539163
221.0033444816054,-4.6049256642824155
221.48829431438128,-9.3109100694124
221.97324414715715,-14.180493916349084
222.45819397993313,-19.09772099671517
222.94314381270908,-23.932924250934057
223.42809364548498,-28.547200225813487
223.91304347826085,-32.79946915811987
224.3979933110367,-36.55549955166472
224.8829431438127,-39.697774238776596
225.36789297658868,-42.13478321585041
225.85284280936452,-43.8083372378983
226.3377926421404,-44.69780842025761
226.82274247491637,-44.820735970782884
227.30769230769235,-44.2298472546744
227.79264214046822,-43.00709038016347
228.2775919732441,-41.25564583097623
228.76254180602007,-39.091034837790666
229.24749163879605,-36.6323856662747
229.73244147157192,-33.99471163344704
230.21739130434779,-31.282767789803586
230.70234113712377,-28.586752628915477
231.18729096989964,-25.97985582384217
231.67224080267562,-23.517452266341095
232.15719063545149,-21.237618912578395
232.64214046822735,-19.162603032666308
233.12709030100334,-17.300887060123284
233.61204013377932,-15.649557164792508
234.09698996655516,-14.196765846824038
234.58193979933105,-12.924158707121737
235.066889632107,-11.809192760647587
235.551839464883,-10.827299249190581
236.03678929765886,-9.953841305655681
236.52173913043475,-9.165799464948927
237.0066889632107,-8.443103418001677
237.4916387959867,-7.769531230460145
237.97658862876256,-7.13312423869531
238.46153846153842,-6.526114195167929
238.9464882943144,-5.944418442696102
239.43143812709027,-5.386814720144464
239.91638795986626,-4.853946216500872
240.40133779264212,-4.347320696382433
240.886287625418,-3.868452268394374
241.37123745819397,-3.4182544637947383
241.85618729096996,-2.9967375869511903
242.3411371237458,-2.6030032985794733
242.8260869565217,-2.2354765431725983
243.31103678929765,-1.8922782394318964
243.79598662207363,-1.5716266819058347
244.2809364548495,-1.272162057953911
244.7658862876254,-0.993113709813583
245.25083612040135,-0.7342677985429792
245.73578595317733,-0.49573633414012663
246.2207357859532,-0.27756931869786816
246.70568561872906,-0.07928309262511538
247.19063545150493,0.10060514422343247
247.6755852842809,0.26494664929814027
248.1605351170569,0.4181606118799052
248.64548494983276,0.5662193985321367
249.13043478260863,0.7164119948681915
249.6153846153846,0.8769158330838568
250.1003344481606,1.0562393674726152
250.58528428093643,1.2626187764236025
251.07023411371233,1.5034581687077067
251.55518394648828,1.784892153072174
252.04013377926427,2.111524127204659
252.52508361204013,2.4863581367142737
253.01003344481603,2.9109046053522873
253.49498327759198,3.385409775921021
253.97993311036788,3.9091428074093093
254.46488294314383,4.480676282224992
254.9498327759197,5.098112983095655
255.43478260869557,5.759237266892574
255.91973244147155,6.461594497570657
256.40468227424753,7.2025195792517875
256.88963210702343,7.979142192270375
257.37458193979927,8.788392740053228
257.8595317725752,9.62702333550091
258.34448160535123,10.491647605712766
258.8294314381271,11.378795909175421
259.31438127090297,12.284980575921338
259.7993311036789,13.206768100603986
260.28428093645493,14.140858965110619
260.7692307692308,15.084177584476619
261.25418060200667,16.033972538754764
261.7391304347826,16.98792074646715
262.2240802675585,17.944220750908286
262.7090301003345,18.90165330819013
263.19397993311037,19.859585335067727
263.6789297658862,20.81789801679796
264.1638795986622,21.776831624687016
264.6488294314382,22.73675665858234
265.133779264214,23.69790017949541
265.6187290969899,24.660073534488244
266.1036789297659,25.62245864434654
266.5886287625419,26.583510724973628
267.0735785953177,27.54102359650116
267.5585284280936,28.49238025922118
268.04347826086956,29.434979973952952
268.52842809364546,30.36679984374564
269.0133779264214,31.287020769065744
269.4983277591973,32.19663044791404
269.98327759197315,33.09891312338232
270.46822742474916,33.999747302801616
270.9531772575251,34.907656178199844
271.438127090301,35.83358652708379
271.92307692307685,36.790425119360606
272.4080267558528,37.79229181714721
272.8929765886288,38.853671232304
273.3779264214047,39.988457171112486
273.86287625418055,41.20898535435549
274.3478260869565,42.52512137309097
274.8327759197325,43.943455445685224
275.31772575250835,45.466636765574464
275.80267558528425,47.09286096424088
276.2876254180602,48.815506084814814
276.7725752508361,50.62289609562612
277.25752508361205,52.49815717252609
277.74247491638795,54.41912310557886
278.2274247491638,56.35824666643605
278.7123745819398,58.28248888568397
279.19732441471575,60.15319123727382
279.68227424749165,61.92598483813977
280.1672240802675,63.55084708739137
280.6521739130435,64.97246458333836
281.13712374581945,66.13108346199981
281.6220735785953,66.96400765434839
282.1070234113712,67.40783118879213
282.5919732441472,67.4013624214906
283.07692307692304,66.88903057534198
283.561872909699,65.82439002462213
284.0468227424749,64.17320235733189
284.53177257525084,61.91553313759044
285.01672240802674,59.046391005115126
285.5016722408027,55.57467154162474
285.9866220735786,51.52051197978286
286.4715719063544,46.911535594135835
286.95652173913044,41.77876254576833
287.4414715719064,36.15309344999054
287.9264214046823,30.063184901831775
288.4113712374581,23.53524952505886
288.89632107023414,16.594902506471335
289.3812709030101,9.270747366521967
289.866220735786,1.5990433214648407
290.3511705685618,-6.371413386970916
290.8361204013378,-14.575113358413379
291.3210702341137,-22.927190714736295
291.80602006688963,-31.322937231842893
292.2909698996655,-39.63981911827423
292.77591973244137,-47.74201933563503
293.2608695652174,-55.48719644892842
293.74581939799333,-62.73484451035849
294.2307692307692,-69.35539461363499
294.71571906354507,-75.23905464819057
295.2006688963211,-80.3033709109153
295.68561872909703,-84.49862984583302
296.1705685618729,-87.81049002485467
296.65551839464877,-90.25960038169478
297.1404682274248,-91.8983505844721
297.62541806020073,-92.80523648065069
298.11036789297657,-93.07755050716507
298.59531772575247,-92.82320423961141
299.0802675585285,-92.15247557365926
299.5652173913043,-91.17038391302894
300.05016722408027,-89.97026816123719
300.53511705685617,-88.62899346302838
301.02006688963206,-87.20404845527207
301.505016722408,-85.73261703699977
301.98996655518397,-84.23252608559669
302.47491638795987,-82.70480085434524
302.9598662207357,-81.13742401424207
303.4448160535117,-79.50980896996865
303.92976588628767,-77.79747062615631
304.41471571906357,-75.97640575954607
304.8996655518394,-74.02677310190644
305.3846153846154,-71.93557921792073
305.86956521739125,-69.69821660890041
306.35451505016727,-67.318848493248
306.8394648829431,-64.80977117336442
307.32441471571906,-62.18999063755625
307.80936454849495,-59.4833104005767
308.2943143812709,-56.716236708748305
308.7792642140468,-53.915970029379444
309.26421404682264,-51.1086822323429
309.74916387959865,-48.318195637907344
310.2341137123746,-45.56510083195537
310.7190635451505,-42.86628741959639
311.20401337792634,-40.2348214545111
311.68896321070235,-37.68008474138963
312.1739130434783,-35.208090122629024
312.6588628762542,-32.821897171469075
313.14381270903004,-30.52206865051459
313.62876254180605,-28.30712523209197
314.1137123745819,-26.173971533947633
314.59866220735785,-24.1182791644345
315.08361204013374,-22.134821891564805
315.56856187290964,-20.217764551467695
316.0535117056856,-18.360911462925767
316.53846153846155,-16.557922529850245
317.02341137123744,-14.802506429611897
317.50836120401334,-13.08860070829831
317.9933110367893,-11.410548498027916
318.47826086956525,-9.763281065303438
318.96321070234114,-8.142514502873716
319.448160535117,-6.544967501113015
319.933110367893,-4.9686051153437685
320.41806020066883,-3.4129105844943175
320.90301003344484,-1.8791833802442492
321.3879598662207,-0.37085671290163114
321.8729096989967,1.106178145135639
322.35785953177253,2.5432596274382258
322.84280936454854,3.928680392737821
323.3277591973244,5.247477199611008
323.8127090301003,6.481315504239996
324.29765886287623,7.608494804262464
324.7826086956522,8.604093544438134
325.2675585284281,9.440263354261047
325.752508361204,10.086675310202017
326.23745819397993,10.511120306921919
326.7224080267559,10.680274416157221
327.2073578595318,10.560656938628536
327.6923076923076,10.119826325712697
328.17725752508363,9.32786483892834
328.6622073578595,8.159183664210776
329.1471571906355,6.5946291747104295
329.6321070234113,4.623793087154325
330.11705685618733,2.2473429603405988
330.6020066889632,-0.5208777049560394
331.0869565217392,-3.652252446780372
331.571906354515,-7.102533848693328
332.0568561872909,-10.811871295896445
332.5418060200669,-14.705753739536567
333.0267558528428,-18.696783576778806
333.5117056856187,-22.687116747980422
333.9966555183946,-26.571368653738514
334.4816053511706,-30.239792351240133
334.9665551839464,-33.58157046486602
335.4515050167224,-36.48810870607985
335.93645484949826,-38.85626442726122
336.4214046822743,-40.591481371939665
336.9063545150501,-41.610827119475275
337.3913043478261,-41.84593630833483
337.87625418060196,-41.24584234616329
338.36120401337797,-39.77962827306599
338.8461538461538,-37.438750262250714
339.3311036789298,-34.23880646273592
339.81605351170566,-30.22047117816587
340.30100334448156,-25.44931890973553
340.7859531772575,-20.014337641944095
341.27090301003346,-14.02506617468423
341.75585284280936,-7.607457462192588
342.24080267558526,-0.8987320941870153
342.7257525083612,5.9583891588546045
343.2107023411371,12.821617742586133
343.69565217391306,19.55473554971702
344.1806020066889,26.032534791943455
344.6655518394649,32.14475367544056
345.15050167224075,37.798824673108925
345.63545150501676,42.92137986373653
346.1204013377926,47.45857537428318
346.6053511705685,51.375395228697045
347.09030100334445,54.65416898881716
347.57525083612046,57.29258291293753
348.0602006688963,59.30147419386505
348.5451505016722,60.70266544946921
349.03010033444815,61.52702193656886
349.5150501672241,61.81280974762096
350.0,61.60432546730453
