Wavelength(nm),Delta_epsilon(M^-1 cm^-1)
202.0,10.357435692374718
202.39464882943145,10.840082565239577
202.7892976588629,11.3401285960337
203.18394648829434,11.856325682534305
203.57859531772579,12.387148148519769
203.97324414715717,12.930823149984098
204.36789297658862,13.485373197181657
204.76254180602007,14.048666394776593
205.1571906354515,14.618468153003558
205.55183946488296,15.192486977364327
205.9464882943144,15.768406876816549
206.34113712374585,16.343900153394454
206.73578595317724,16.916616811062834
207.1304347826087,17.484150221980666
207.52508361204013,18.043982441932357
207.91973244147158,18.59341597462128
208.31438127090303,19.12950118944644
208.70903010033447,19.64896954986238
209.10367892976586,20.148182179473316
209.4983277591973,20.62310129074567
209.89297658862878,21.069289101794173
210.2876254180602,21.481935667040396
210.68227424749165,21.855914103692424
211.0769230769231,22.18585939263911
211.47157190635454,22.46626542195544
211.86622073578596,22.691594164263005
212.2608695652174,22.856390649643966
212.65551839464885,22.95539751484671
213.05016722408027,22.983663262921564
213.44481605351172,22.936638969371938
213.83946488294316,22.810259138024687
214.23411371237458,22.6010038765986
214.62876254180603,22.305941573146946
215.02341137123747,21.922753681575916
215.4180602006689,21.449745745543844
215.81270903010034,20.88585095007604
216.20735785953178,20.230633823415754
216.6020066889632,19.484301883703544
216.99665551839465,18.647731940837293
217.3913043478261,17.72251559785541
217.78595317725754,16.711025633596353
218.18060200668896,15.616501858109366
218.5752508361204,14.443152120607403
218.96989966555185,13.19626165042571
219.36454849498327,11.882301853710398
219.75919732441474,10.509027954703692
220.1538461538462,9.08555332039582
220.54849498327758,7.622386921597444
220.94314381270902,6.131419367929974
221.33779264214047,4.625842759340048
221.73244147157192,3.1199908337148323
222.12709030100336,1.629089158398852
222.5217391304348,0.16891078484406993
222.91638795986626,-1.2446591919719514
223.31103678929765,-2.5961369477662593
223.7056856187291,-3.8710074860311097
224.10033444816054,-5.0563132873761525
224.49498327759198,-6.141223914267197
224.88963210702343,-7.117543416576674
225.28428093645488,-7.98011422984758
225.67892976588627,-8.72708308420723
226.0735785953177,-9.360005503090283
226.46822742474916,-9.883779280433824
226.8628762541806,-10.306411946281862
227.25752508361205,-10.638640670855224
227.6521739130435,-10.893433652768966
228.04682274247494,-11.085408732297577
228.44147157190636,-11.23020742770112
228.8361204013378,-11.34386113546787
229.23076923076925,-11.44218167427649
229.62541806020067,-11.540201762614128
230.02006688963212,-11.651683534942201
230.41471571906357,-11.788705856277772
230.80936454849498,-11.9613348206526
231.20401337792643,-12.177376969371249
231.59866220735788,-12.442211667050266
231.9933110367893,-12.758697600235411
232.38795986622074,-13.127148057713864
232.7826086956522,-13.545369826064457
233.17725752508363,-14.008760455339173
233.57190635451505,-14.51045777440391
233.9665551839465,-15.041533723461256
234.36120401337791,-15.591222192708932
234.75585284280936,-16.147168427890648
235.1505016722408,-16.695686714230174
235.54515050167225,-17.22201437916009
235.93979933110367,-17.71055409776912
236.33444816053512,-18.14510280533829
236.7290969899666,-18.509073288286704
237.12374581939798,-18.785722288707866
237.51839464882943,-18.958405051345714
237.91304347826087,-19.010879115677866
238.30769230769232,-18.927678662993657
238.70234113712377,-18.694574319605664
239.0969899665552,-18.29912214675833
239.4916387959866,-17.73129051432311
239.88628762541805,-16.984136291166635
240.2809364548495,-16.05448457147305
240.67558528428094,-14.94355172286856
241.0702341137124,-13.657442713571202
241.46488294314383,-12.207452879499678
241.85953177257528,-10.61011301194475
242.25418060200667,-8.886934961161906
242.64882943143812,-7.063841310698531
243.04347826086956,-5.170294009403911
243.438127090301,-3.2381690042085367
243.83277591973246,-1.300452361674339
244.2274247491639,0.6101460389343517
244.6220735785953,2.4625554427413885
245.01672240802674,4.228580557602838
245.4113712374582,5.883922471085752
245.80602006688966,7.408919351237409
246.20066889632108,8.78897219453994
246.59531772575252,10.014652642358904
246.9899665551839,11.081519039222043
247.38461538461536,11.989689910951096
247.7792642140468,12.7432386711854
248.17391304347825,13.349478952362844
248.5685618729097,13.81820729186622
248.96321070234114,14.160960853817496
249.3578595317726,14.390334845609013
249.75250836120404,14.519389724436564
250.14715719063548,14.561164220797595
250.54180602006693,14.528298061719468
250.93645484949838,14.432758840439854
251.33110367892976,14.285660987885702
251.7257525083612,14.097161102465119
252.1204013377926,13.876412606249296
252.51505016722405,13.631563325986509
252.9096989966555,13.369781618445048
253.30434782608694,13.097299543619457
253.69899665551839,12.81946483085998
254.09364548494983,12.540796523128426
254.48829431438128,12.265041845226865
254.88294314381272,11.995233764323254
255.27759197324417,11.733749786574837
255.67224080267562,11.482372811293471
256.06688963210706,11.242354529131498
256.46153846153845,11.014481173965956
256.8561872909699,10.799140707818507
257.2508361204013,10.596389971714366
257.64548494983273,10.406020108606118
258.0401337792642,10.22761867151452
258.4347826086956,10.060627178952833
258.8294314381271,9.90439331769184
259.2240802675585,9.75821736589454
259.61872909698997,9.62139261648244
260.0133779264214,9.49323960404669
260.40802675585286,9.3731338433559
260.8026755852843,9.26052668802348
261.1973244147158,9.154958930215113
261.59197324414714,9.05606695881594
261.9866220735786,8.963581677637292
262.38127090301,8.877320893241176
262.7759197324414,8.79717640804078
263.17056856187287,8.723097487164718
263.5652173913043,8.655072623199786
263.95986622073576,8.593111563443747
264.3545150501672,8.537229398646847
264.74916387959865,8.48743418292475
265.14381270903016,8.443719118555693
265.53846153846155,8.406059851571943
265.93311036789305,8.374416928405132
266.3277591973245,8.348742993323409
266.72240802675583,8.328993888215695
267.11705685618733,8.315142477738362
267.51170568561867,8.307193793600655
267.9063545150501,8.305200000684321
268.3010033444816,8.309273755098598
268.695652173913,8.319598752794333
269.0903010033445,8.336436635195335
269.48494983277595,8.360129878207632
269.8795986622074,8.39110077629719
270.27424749163885,8.429847069950831
270.6688963210703,8.476935085733396
271.06354515050174,8.532991416598223
271.4581939799331,8.5986941480539
271.8528428093646,8.674764445857674
272.247491638796,8.761959002385431
272.64214046822735,8.861063449620538
273.03678929765886,8.972886453482182
273.4314381270903,9.098253872679711
273.82608695652175,9.238002151619325
274.2207357859532,9.39297006108202
274.61538461538464,9.56398802181872
275.0100334448161,9.751864542089562
275.40468227424753,9.957369746936774
275.799331103679,10.181216534001369
276.1939799331104,10.424040504911018
276.5886287625419,10.686380430805187
276.98327759197326,10.968661546231464
277.37792642140465,11.271184350733725
277.7725752508361,11.594121748329883
278.16722408026754,11.937527186161788
278.561872909699,12.301355889727676
278.95652173913044,12.685500288895305
279.3511705685619,13.089839297976008
279.74581939799333,13.514299345516832
280.1404682274248,13.958923127827093
280.5351170568562,14.423940251339339
280.92976588628767,14.909832549903996
281.3244147157191,15.417386222551121
281.71906354515056,15.947723259334413
282.11371237458195,16.50230597386509
282.50836120401334,17.08291070222472
282.9030100334448,17.691569517454642
283.29765886287623,18.330481664636192
283.6923076923077,19.001898833666942
284.0869565217391,19.707989948703467
284.4816053511706,20.45069166973368
284.876254180602,21.231550336605547
285.27090301003346,22.051559934536613
285.6655518394649,22.910999261439027
286.06020066889636,23.809270297997973
286.4548494983278,24.744739212036073
286.8494983277592,25.714581717796182
287.24414715719064,26.714635742505457
287.63879598662203,27.73926645628277
288.0334448160535,28.78125149318206
288.4280936454849,29.83169730984405
288.82274247491637,30.880000660156053
289.2173913043478,31.913871562569426
289.61204013377926,32.919435252620325
290.0066889632107,33.88142974129316
290.40133779264215,34.783512074907
290.7959866220736,35.608679744279996
291.19063545150505,36.339803843594375
291.5852842809365,36.96025804822949
291.9799331103679,37.45461350399325
292.3745819397993,37.809356241315044
292.7692307692307,38.01357317024634
293.16387959866216,38.059547535291834
293.5585284280936,37.943206821638846
293.95317725752506,37.66437628158026
294.3478260869565,37.22680874814215
294.74247491638795,36.63798393056131
295.1371237458194,35.90869449277623
295.53177257525084,35.05245802087348
295.9264214046823,34.08481004705854
296.32107023411373,33.02254137053488
296.7157190635452,31.882942378383184
297.11036789297657,30.68310892312238
297.505016722408,29.439350786764237
297.8996655518394,28.166727675863658
298.29431438127085,26.878721793184557
298.6889632107023,25.587042461216896
299.08361204013374,24.30154829424574
299.4782608695652,23.03026639905778
299.87290969899664,21.779485688836957
300.26755852842814,20.55390184697406
300.66220735785953,19.356793848934178
301.05685618729103,18.190215368685838
301.4515050167225,17.055188165942074
301.8461538461539,15.951888190893973
302.2408026755853,14.879818370449424
302.6354515050167,13.837964722466525
303.0301003344481,12.824934552942336
303.42474916387954,11.839077057469865
303.819397993311,10.878587735690902
304.2140468227425,9.941598711060099
304.60869565217394,9.026257403290904
305.0033444816054,8.130796095617777
305.3979933110368,7.2535948303780255
305.7926421404683,6.393239797568462
306.1872909698997,5.548578980757211
306.58193979933117,4.718776308444198
306.9765886287626,3.903364931430401
307.371237458194,3.102299506638775
307.76588628762545,2.31600651419508
308.16053511705684,1.545430675319656
308.5551839464883,0.7920745006679049
308.94983277591973,0.05802693953163772
309.3444816053512,-0.6540238817741884
309.7391304347826,-1.3407996020017545
310.13377926421407,-1.998468355938187
310.5284280936455,-2.622715091987128
310.92307692307696,-3.2088500801883444
311.3177257525084,-3.751957951865964
311.71237458193986,-4.247086213795163
312.1070234113713,-4.689467774102578
312.5016722408027,-5.074766989540682
312.8963210702341,-5.399333754905647
313.2909698996655,-5.660446086361199
313.685618729097,-5.856519460547317
314.0802675585284,-5.987261679655777
314.47491638795987,-6.0537556706984015
314.8695652173913,-6.058459237944775
315.26421404682276,-6.005119551321519
315.6588628762542,-5.898609694184933
316.05351170568565,-5.744703260416837
316.4481605351171,-5.549809245959935
316.84280936454854,-5.320692279051763
317.23745819398,-5.064202275385726
317.6321070234114,-4.78703337739592
318.02675585284277,-4.495525652190365
318.4214046822742,-4.195515898515083
318.81605351170566,-3.892237411064437
319.2107023411371,-3.5902636708411113
319.60535117056855,-3.293488141959891
320.0,-3.0051315859730763
