Wavelength(nm),Delta_epsilon(M^-1 cm^-1)
202.0,-13.108162248931768
202.39464882943145,-13.5021686701106
202.78929765886286,-13.85925677580238
203.1839464882943,-14.172894370386008
203.57859531772576,-14.43637500730939
203.9732441471572,-14.642889341900633
204.36789297658862,-14.785603671885148
204.76254180602007,-14.857744629429705
205.1571906354515,-14.852688785060273
205.55183946488296,-14.76405574604017
205.94648829431438,-14.585803187062593
206.34113712374582,-14.312322145723122
206.73578595317727,-13.938530854139511
207.1304347826087,-13.459965364587665
207.52508361204013,-12.872865262556564
207.91973244147158,-12.17425284461276
208.31438127090303,-11.362004268293886
208.70903010033447,-10.434911352318288
209.10367892976586,-9.39273291132265
209.4983277591973,-8.236234742201665
209.89297658862876,-6.967217629865156
210.2876254180602,-5.588532999056063
210.68227424749165,-4.104086095784841
211.0769230769231,-2.5188268271814263
211.47157190635454,-0.8387286131758175
211.86622073578593,0.929244200325581
212.26086956521738,2.7771796553133017
212.65551839464882,4.696271387948437
213.05016722408027,6.676880809993662
213.44481605351172,8.708607305889121
213.83946488294316,10.780365481572169
214.23411371237458,12.880468530109136
214.62876254180603,14.996716835282454
215.02341137123744,17.11649100977436
215.4180602006689,19.226848650953695
215.81270903010034,21.314624185477257
216.20735785953178,23.366531255103823
216.6020066889632,25.369267162041247
216.99665551839465,27.309618935741003
217.3913043478261,29.17457059880856
217.78595317725754,30.951411194064686
218.18060200668896,32.62784308634594
218.5752508361204,34.19208997231455
218.96989966555185,35.63300392251297
219.36454849498327,36.94017064756138
219.7591973244147,38.10401203202008
220.15384615384616,39.11588482393977
220.5484949832776,39.96817421552333
220.94314381270905,40.65438091130229
221.33779264214047,41.16920016559884
221.73244147157192,41.508591191122946
222.12709030100336,41.66983530470475
222.52173913043475,41.65158119222505
222.9163879598662,41.453875748675934
223.31103678929765,41.078179084552055
223.7056856187291,40.52736248745369
224.10033444816054,39.8056883861619
224.49498327759198,38.918771679075725
224.88963210702343,37.873522152665636
225.28428093645482,36.67806811894924
225.67892976588627,35.34166183228542
226.0735785953177,33.87456769168438
226.46822742474916,32.2879346808462
226.8628762541806,30.593654929189242
227.25752508361205,28.804210678133828
227.6521739130435,26.932512293407438
228.04682274247494,24.991730262899935
228.44147157190633,22.995124349109638
228.83612040133778,20.95587321622454
229.23076923076923,18.886907917666072
229.62541806020067,16.800752606637488
230.0200668896321,14.709375718985035
230.41471571906354,12.624054676583292
230.80936454849498,10.55525687544708
231.20401337792643,8.512539363391808
231.59866220735785,6.504469187158872
231.9933110367893,4.538565910159337
232.38795986622074,2.6212672824556793
232.7826086956522,0.7579184982486356
233.1772575250836,-1.0472150826321371
233.57190635451505,-2.790912429624077
233.9665551839465,-4.470939774216137
234.36120401337791,-6.0859737144126465
234.75585284280936,-7.635506696097523
235.1505016722408,-9.119737496330107
235.54515050167225,-10.539449692378783
235.9397993311037,-11.895881389992935
236.3344481605351,-13.190589698434989
236.72909698996654,-14.42531357289513
237.12374581939798,-15.60183869323656
237.51839464882943,-16.721868009087085
237.91304347826087,-17.78690145401719
238.30769230769232,-18.798128116351492
238.70234113712377,-19.75633385308223
239.0969899665552,-20.66182695021823
239.4916387959866,-21.5143839735159
239.88628762541805,-22.31321742586549
240.2809364548495,-23.056966241938845
240.67558528428094,-23.74370951972913
241.0702341137124,-24.371003227410952
241.46488294314383,-24.935938949851927
241.85953177257528,-25.435223071366917
242.25418060200667,-25.86527415067769
242.64882943143812,-26.222335652083558
243.04347826086956,-26.502600675180684
243.43812709030098,-26.70234489482758
243.83277591973243,-26.81806360229887
244.22742474916387,-26.84660854367497
244.62207357859532,-26.785320194560317
245.01672240802677,-26.632151198540587
245.41137123745818,-26.385776932245207
245.80602006688963,-26.045689538423037
246.20066889632108,-25.612272279884902
246.5953177257525,-25.08685169538331
246.98996655518394,-24.471725761823475
247.3846153846154,-23.77016705926121
247.77926421404683,-22.986400765934622
248.17391304347828,-22.125558147779053
248.5685618729097,-21.193607017364243
248.96321070234114,-20.197261388620166
249.35785953177256,-19.14387321610238
249.752508361204,-18.041309654744204
250.14715719063545,-16.897819687091648
250.5418060200669,-15.721894225094264
250.93645484949832,-14.522123894753761
251.33110367892976,-13.307058653622235
251.7257525083612,-12.085073179785127
252.1204013377926,-10.864241619799907
252.51505016722405,-9.65222481123042
252.9096989966555,-8.45617252694125
253.30434782608694,-7.282642650707471
253.69899665551839,-6.137538516504235
254.09364548494983,-5.026064957146529
254.48829431438128,-3.952702940809585
254.88294314381267,-2.921202053056897
255.27759197324417,-1.9345895304596912
255.67224080267556,-0.9951940882796031
256.066889632107,-0.1046824224476924
256.46153846153845,0.735893986883526
256.8561872909699,1.5260442842286728
257.25083612040135,2.265778406587679
257.64548494983273,2.9555444879562254
258.04013377926424,3.596165819931211
258.4347826086956,4.188779454500487
258.8294314381271,4.7347782436188615
259.2240802675585,5.23575777839719
259.61872909698997,5.693469336678828
260.0133779264214,6.1097795886824
260.4080267558528,6.486637461972713
260.8026755852843,6.826048242842587
261.1973244147157,7.130054702258546
261.59197324414714,7.400724789009975
261.9866220735786,7.640145235895968
262.38127090301003,7.8504202791281
262.7759197324415,8.033674596499395
263.1705685618729,8.192059523829084
263.5652173913044,8.32776160745297
263.95986622073576,8.443012587338309
264.35451505016727,8.540099974047614
264.74916387959865,8.621377475975764
265.1438127090301,8.68927464363911
265.53846153846155,8.746305218104874
265.933110367893,8.795073794205813
266.32775919732444,8.838280530014526
266.72240802675583,8.878723747024786
267.11705685618733,8.919300366425372
267.5117056856187,8.96300421255918
267.90635451505017,9.012922282867661
268.3010033444816,9.072229132966186
268.69565217391306,9.144179555422145
269.0903010033445,9.23209974145999
269.4849498327759,9.339377106976356
269.8795986622074,9.469448939203145
270.2742474916388,9.625789979858242
270.66889632107024,9.811899006804667
271.0635451505017,10.031284411576229
271.4581939799331,10.287448697418723
271.8528428093646,10.583871744828823
272.247491638796,10.923992612353514
272.64214046822747,11.311189563313334
273.03678929765886,11.748757938114858
273.4314381270903,12.2398854311423
273.82608695652175,12.787624285320026
274.22073578595314,13.394859890900891
274.61538461538464,14.064275272492232
275.01003344481603,14.798310974292818
275.40468227424753,15.599119912208673
275.7993311036789,16.46851685662925
276.1939799331104,17.40792234409797
276.5886287625418,18.418300991732227
276.9832775919732,19.500094405497507
277.3779264214047,20.653149131081463
277.7725752508361,21.87664039095602
278.1672240802676,23.16899267783091
278.56187290969893,24.527798625281946
278.95652173913044,25.949737940586328
279.3511705685618,27.43049854994366
279.7458193979933,28.964702457258046
280.1404682274247,30.545839137434776
280.53511705685617,32.166209555161394
280.9297658862876,33.8168841009457
281.32441471571906,35.48767784828399
281.7190635451505,37.16714654058891
282.1137123745819,38.84260659720532
282.50836120401334,40.50018217078165
282.9030100334448,42.124881883905175
283.29765886287623,43.70070731688767
283.6923076923077,45.2107946127435
284.0869565217391,46.63758971838921
284.4816053511706,47.963056809032736
284.87625418060196,49.168918369170136
285.27090301003346,50.23692425947056
285.66555183946485,51.149145921634016
286.0602006688963,51.88829070617574
286.45484949832775,52.43803019819929
286.8494983277592,52.78333541306762
287.24414715719064,52.91081088695002
287.63879598662203,52.80901904379479
288.03344481605353,52.46878582282383
288.4280936454849,51.883478434476416
288.82274247491637,51.04924630370194
289.2173913043478,49.96521677208084
289.61204013377926,48.633637966050856
290.0066889632107,47.05996238531761
290.40133779264215,45.25286619707795
290.7959866220736,43.224200898096974
291.190635451505,40.98887587560545
291.58528428093643,38.56467239650618
291.9799331103679,35.9719916114609
292.3745819397993,33.233541199971135
292.7692307692308,30.373967226714527
293.1638795986622,27.419439552197694
293.55852842809367,24.39720067162669
293.95317725752506,21.335089083010647
294.34782608695656,18.261049158840056
294.74247491638795,15.202639979382965
295.1371237458194,12.186555659757035
295.53177257525084,9.238169364404596
295.9264214046823,6.381112465235899
296.32107023411373,3.6368991936015274
296.7157190635451,1.0246057060454148
297.1103678929766,-1.4393892134552677
297.505016722408,-3.7415964897517484
297.89966555183946,-5.871538831532909
298.2943143812709,-7.821801322384082
298.68896321070235,-9.588011358940253
299.0836120401338,-11.168750726405232
299.47826086956525,-12.56540440214503
299.8729096989967,-13.781952264808634
300.2675585284281,-14.824711215898775
300.66220735785953,-15.702036261788363
301.056856187291,-16.423989838826795
301.4515050167224,-17.001989087192545
301.84615384615387,-17.44844089747199
302.2408026755853,-17.77637438524495
302.63545150501676,-17.99908001998305
303.03010033444815,-18.129763979005062
303.4247491638796,-18.181225453611944
303.819397993311,-18.165563643938643
304.2140468227425,-18.09392008311073
304.60869565217394,-17.976260770237648
305.0033444816054,-17.821201402928416
305.39799331103677,-17.63587781662694
305.79264214046816,-17.425862588501374
306.18729096989966,-17.195127671011498
306.58193979933105,-16.946051902526275
306.9765886287625,-16.679471312458734
307.37123745819395,-16.3947693050297
307.7658862876254,-16.09000307413585
308.16053511705684,-15.762061974391518
308.5551839464883,-15.406853050996794
308.94983277591973,-15.019508513432978
309.3444816053511,-14.59460962462572
309.73913043478257,-14.126421267855983
310.133779264214,-13.60913134854372
310.52842809364546,-13.03708918780235
310.9230769230769,-12.405037170392616
311.31772575250835,-11.708330122399785
311.7123745819398,-10.943137213990306
312.1070234113712,-10.106621609146858
312.50167224080263,-9.197093614579915
312.8963210702341,-8.214133708789909
313.2909698996655,-7.158682551161561
313.685618729097,-6.033095868202843
314.0802675585284,-4.841162974211162
314.47491638795987,-3.5880885878128126
314.86956521739125,-2.2804385318676488
315.26421404682276,-0.9260508274247942
315.65886287625415,0.46608541374106616
316.0535117056856,1.8859800562749849
316.44816053511704,3.322816972630163
316.8428093645485,4.765149398361572
317.23745819397993,6.201110457320524
317.6321070234114,7.618633338795637
318.0267558528428,9.005675407902404
318.4214046822742,10.350440500744124
318.81605351170566,11.641593798527655
319.2107023411371,12.868463984933191
319.60535117056855,14.02122785723018
320.0,15.091073166604064
