Wavelength(nm),Delta_epsilon(M^-1 cm^-1)
202.0,-9.969180478805946
202.39464882943145,-10.64770238888817
202.78929765886286,-11.361172769055003
203.1839464882943,-12.106971705333434
203.57859531772576,-12.880029212527251
203.9732441471572,-13.67225224980286
204.36789297658862,-14.472125354856516
204.76254180602007,-15.264551514927254
205.1571906354515,-16.030958540784763
205.55183946488296,-16.749656401241676
205.94648829431438,-17.3964044513691
206.34113712374582,-17.945140162810326
206.73578595317727,-18.368831619919263
207.1304347826087,-18.64043631552368
207.52508361204013,-18.73396536074376
207.91973244147158,-18.625652266641673
208.31438127090303,-18.29520313439069
208.70903010033447,-17.72706501321442
209.10367892976586,-16.911604320008585
209.4983277591973,-15.84605333287367
209.89297658862876,-14.535073200923824
210.2876254180602,-12.990804325901417
210.68227424749165,-11.23232952249174
211.0769230769231,-9.284553762358804
211.47157190635454,-7.176590964832936
211.86622073578593,-4.939824565000336
212.26086956521738,-2.6058587493420355
212.65551839464882,-0.20459301163191743
213.05016722408027,2.2373662705697535
213.44481605351172,4.697792343321579
213.83946488294316,7.159329360535564
214.23411371237458,9.60938079197377
214.62876254180603,12.039475257887176
215.02341137123744,14.444265050797
215.4180602006689,16.82035833250013
215.81270903010034,19.16519043299251
216.20735785953178,21.476099893497185
216.6020066889632,23.749699393045688
216.99665551839465,25.981539171197937
217.3913043478261,28.16597561802561
217.78595317725754,30.296104784940518
218.18060200668896,32.36361726486298
218.5752508361204,34.35848185052755
218.96989966555185,36.26845851523292
219.36454849498327,38.078548542557805
219.7591973244147,39.770574178289685
220.15384615384616,41.32310848928529
220.5484949832776,42.71193093336914
220.94314381270905,43.91107223587163
221.33779264214047,44.89436347486514
221.73244147157192,45.63726274863245
222.12709030100336,46.11864223613332
222.52173913043475,46.32220813701243
222.9163879598662,46.23730099000621
223.31103678929765,45.85896399898187
223.7056856187291,45.18733459002488
224.10033444816054,44.22656736111603
224.49498327759198,42.98359996714504
224.88963210702343,41.46710573204362
225.28428093645482,39.68693082314652
225.67892976588627,37.654196991610526
226.0735785953177,35.382085491419986
226.46822742474916,32.88714021214979
226.8628762541806,30.19078241058037
227.25752508361205,27.3206549608196
227.6521739130435,24.31143080214739
228.04682274247494,21.204820536361492
228.44147157190633,18.04866523465909
228.83612040133778,14.895158399216706
229.23076923076923,11.798368201253673
229.62541806020067,8.811310237224442
230.0200668896321,5.982857356088239
230.41471571906354,3.3547845088661887
230.80936454849498,0.9592468174147781
231.20401337792643,-1.1830251579060602
231.59866220735785,-3.063577276148465
231.9933110367893,-4.685997491268695
232.38795986622074,-6.064617519716977
232.7826086956522,-7.222348536704426
233.1772575250836,-8.187990418127168
233.57190635451505,-8.993410986427774
233.9665551839465,-9.670946106994172
234.36120401337791,-10.251248652226657
234.75585284280936,-10.761670810723961
235.1505016722408,-11.225159092450273
235.54515050167225,-11.65960737197665
235.9397993311037,-12.07764249534676
236.3344481605351,-12.486868065312644
236.72909698996654,-12.890614326375248
237.12374581939798,-13.28920314125342
237.51839464882943,-13.68163980748772
237.91304347826087,-14.067524543886547
238.30769230769232,-14.448887133213589
238.70234113712377,-14.831628186808969
239.0969899665552,-15.226309189859103
239.4916387959866,-15.6481484143872
239.88628762541805,-16.116211738875638
240.2809364548495,-16.651901191104507
240.67558528428094,-17.27692153843635
241.0702341137124,-18.01094504798941
241.46488294314383,-18.86920258441871
241.85953177257528,-19.86021071820407
242.25418060200667,-20.98380343976519
242.64882943143812,-22.229581653208367
243.04347826086956,-23.575840701418553
243.43812709030098,-24.989008033427226
243.83277591973243,-26.423636804266494
244.22742474916387,-27.823056391389716
244.62207357859532,-29.12085380194977
245.01672240802677,-30.243407498276287
245.41137123745818,-31.113667683501827
245.80602006688963,-31.65623765218591
246.20066889632108,-31.803555574223186
246.5953177257525,-31.50264893635165
246.98996655518394,-30.72162527807951
247.3846153846154,-29.4548845194287
247.77926421404683,-27.72607725436016
248.17391304347828,-25.588108304388157
248.5685618729097,-23.119932510271024
248.96321070234114,-20.420397119883734
249.35785953177256,-17.599843303565883
249.752508361204,-14.770518561356575
250.14715719063545,-12.037035391615843
250.5418060200669,-9.488110424809797
250.93645484949832,-7.190607569176882
251.33110367892976,-5.186499986229192
251.7257525083612,-3.4928387556534073
252.1204013377926,-2.1043081776014243
252.51505016722405,-0.9975951581548824
252.9096989966555,-0.1366740359580909
253.30434782608694,0.5218102993788659
253.69899665551839,1.0236711906542053
254.09364548494983,1.4131924975089123
254.48829431438128,1.7301900728989332
254.88294314381267,2.008137433277973
255.27759197324417,2.2732683581800264
255.67224080267556,2.544500143474609
256.066889632107,2.8339766999266445
256.46153846153845,3.148011133799577
256.8561872909699,3.4882166246132553
257.25083612040135,3.8526514200946864
257.64548494983273,4.2368592544929875
258.04013377926424,4.634745211022914
258.4347826086956,5.039274578366527
258.8294314381271,5.443011356524073
259.2240802675585,5.838525461149278
259.61872909698997,6.218700348549428
260.0133779264214,6.576971903990574
260.4080267558528,6.907526421590949
260.8026755852843,7.205477857897281
261.1973244147157,7.46703017593635
261.59197324414714,7.6896118397542645
261.9866220735786,7.871953564269353
262.38127090301003,8.01407581975137
262.7759197324415,8.117164152255903
263.1705685618729,8.183335847768756
263.5652173913044,8.21533190914184
263.95986622073576,8.216191963890981
264.35451505016727,8.18897703525228
264.74916387959865,8.136592626985912
265.1438127090301,8.061736141443935
265.53846153846155,7.966957870769466
265.933110367893,7.854795396335347
266.32775919732444,7.727926615909169
266.72240802675583,7.589290347329238
267.11705685618733,7.442142151862757
267.5117056856187,7.290038319420668
267.90635451505017,7.136763467340738
268.3010033444816,6.98623032560102
268.69565217391306,6.842382093845502
269.0903010033445,6.709120490974198
269.4849498327759,6.590270622889242
269.8795986622074,6.4895813820734745
270.2742474916388,6.410750260299651
270.66889632107024,6.357455648824521
271.0635451505017,6.333378243190626
271.4581939799331,6.34219581055725
271.8528428093646,6.387541774076967
272.247491638796,6.472926925166827
272.64214046822747,6.601633600087446
273.03678929765886,6.776600666344644
273.4314381270903,7.000323105490076
273.82608695652175,7.274789755564586
274.22073578595314,7.601476261087262
274.61538461538464,7.981398939701508
275.01003344481603,8.415222405018852
275.40468227424753,8.90340329447046
275.7993311036789,9.446347288454982
276.1939799331104,10.044557641469575
276.5886287625418,10.698759339708792
276.9832775919732,11.409991023482656
277.3779264214047,12.17966408794428
277.7725752508361,13.009592945324272
278.1672240802676,13.902001773276517
278.56187290969893,14.859511973642025
278.95652173913044,15.885112547617634
279.3511705685618,16.982114215078294
279.7458193979933,18.154088406765425
280.1404682274247,19.404794479197367
280.53511705685617,20.738102050857684
280.9297658862876,22.15791891933493
281.32441471571906,23.66813674423141
281.7190635451505,25.272604462657586
282.1137123745819,26.97513131682755
282.50836120401334,28.77950636555818
282.9030100334448,30.689500150587836
283.29765886287623,32.70879007387707
283.6923076923077,34.84072986785783
284.0869565217391,37.08787246638695
284.4816053511706,39.45116065115565
284.87625418060196,41.92872354759924
285.27090301003346,44.51425749950835
285.66555183946485,47.19502243628968
286.0602006688963,49.949545253059156
286.45484949832775,52.74518808163481
286.8494983277592,55.535811295347074
287.24414715719064,58.25983581320428
287.63879598662203,60.83907648028366
288.03344481605353,63.17875790465625
288.4280936454849,65.16910916204651
288.82274247491637,66.68883957877641
289.2173913043478,67.61061513490101
289.61204013377926,67.80840128600347
290.0066889632107,67.1662585002298
290.40133779264215,65.58793077602125
290.7959866220736,63.00640258908808
291.190635451505,59.39253103433904
291.58528428093643,54.761870049358805
291.9799331103679,49.17886839751747
292.3745819397993,42.75774149249048
292.7692307692308,35.65951670819241
293.1638795986622,28.08506167745772
293.55852842809367,20.264320355816096
293.95317725752506,12.442452214088744
294.34782608695656,4.864020975004424
294.74247491638795,-2.2432616809409387
295.1371237458194,-8.683528120203045
295.53177257525084,-14.304786926780888
295.9264214046823,-19.00658812116399
296.32107023411373,-22.74249163896423
296.7157190635451,-25.517299996926656
297.1103678929766,-27.379845591363
297.505016722408,-28.412772692546913
297.89966555183946,-28.721055067526237
298.2943143812709,-28.420896750859125
298.68896321070235,-27.630261701516503
299.0836120401338,-26.461730824015675
299.47826086956525,-25.01785557384166
299.8729096989967,-23.388774929764175
300.2675585284281,-21.65162537943552
300.66220735785953,-19.871185898226496
301.056856187291,-18.101219854049926
301.4515050167224,-16.38605968274031
301.84615384615387,-14.76209539475945
302.2408026755853,-13.25895463936561
302.63545150501676,-11.900288150764196
303.03010033444815,-10.704189184855831
303.4247491638796,-9.683365683935465
303.819397993311,-8.845234679823427
304.2140468227425,-8.19210966959773
304.60869565217394,-7.721604658903885
305.0033444816054,-7.4272990819594185
305.39799331103677,-7.299622058201266
305.79264214046816,-7.326848908962926
306.18729096989966,-7.49607384147
306.58193979933105,-7.794031389668385
306.9765886287625,-8.207674215146012
307.37123745819395,-8.724459732451885
307.7658862876254,-9.332338626203633
308.16053511705684,-10.019467114875972
308.5551839464883,-10.773681063720655
308.94983277591973,-11.581777730350657
309.3444816053511,-12.428655988905112
309.73913043478257,-13.296374046419222
310.133779264214,-14.16319898111855
310.52842809364546,-15.002746233451457
310.9230769230769,-15.78333715450049
311.31772575250835,-16.467732031020667
311.7123745819398,-17.01341304538139
312.1070234113712,-17.37358137160934
312.50167224080263,-17.498980732575372
312.8963210702341,-17.34055954635951
313.2909698996655,-16.852843835449015
313.685618729097,-15.997740925515563
314.0802675585284,-14.74837088247596
314.47491638795987,-13.09246806320699
314.86956521739125,-11.03492757630568
315.26421404682276,-8.599178226834086
315.65886287625415,-5.827208830404753
316.0535117056856,-2.7782215528232834
316.44816053511704,0.47398514912624207
316.8428093645485,3.844691312019961
317.23745819397993,7.242683042274866
317.6321070234114,10.575065446859611
318.0267558528428,13.752081294269233
318.4214046822742,16.691601897325203
318.81605351170566,19.323039692710367
319.2107023411371,21.590508695987737
319.60535117056855,23.4550949667754
320.0,24.89609749144159
