Wavelength(nm),Delta_epsilon(M^-1 cm^-1)
202.0,-2.6112917380852894
202.39464882943145,-3.9424481491153456
202.78929765886286,-5.5729019720963215
203.18394648829428,-7.525349925475532
203.57859531772573,-9.814498182172697
203.97324414715717,-12.444660768911247
204.36789297658862,-15.407710620545233
204.76254180602007,-18.68164291789246
205.1571906354515,-22.22996633291579
205.55183946488296,-26.002055837118814
205.94648829431438,-29.934493182661335
206.3411371237458,-33.95330559421669
206.73578595317724,-37.976908367194575
207.1304347826087,-41.91947950842563
207.52508361204013,-45.69445645172558
207.91973244147155,-49.2178528108481
208.31438127090297,-52.4111471130351
208.70903010033447,-55.20358779470385
209.1036789297659,-57.53387320207847
209.4983277591973,-59.351278106335876
209.89297658862876,-60.6163822172316
210.2876254180602,-61.30158871598198
210.68227424749165,-61.39159245967248
211.07692307692307,-60.883877361561616
211.47157190635448,-59.7892166677763
211.86622073578593,-58.13205268525462
212.26086956521738,-55.95057390626154
212.65551839464882,-53.296303019888896
213.05016722408024,-50.23305708527342
213.44481605351172,-46.83522578135472
213.83946488294316,-43.185414077310014
214.23411371237458,-39.371592028093
214.62876254180603,-35.4839713063114
215.02341137123744,-31.611874661995362
215.4180602006689,-27.84087355986839
215.81270903010034,-24.250437563540014
216.20735785953175,-20.912268962150275
216.6020066889632,-17.889396955389465
216.99665551839462,-15.235993230260322
217.3913043478261,-12.997764607063528
217.78595317725754,-11.212697990741198
218.18060200668896,-9.911893214576866
218.5752508361204,-9.12022820664917
218.96989966555185,-8.856656897724736
219.36454849498327,-9.134032888621242
219.7591973244147,-9.95846296292378
220.15384615384613,-11.32830169539522
220.54849498327758,-13.232979810342977
220.94314381270902,-15.651898217013096
221.33779264214044,-18.553609653481715
221.7324414715719,-21.895454187789124
222.12709030100336,-25.623726848094588
222.5217391304348,-29.67435588527497
222.91638795986623,-33.97398238934426
223.31103678929765,-38.4412785359731
223.7056856187291,-42.988338152066554
224.10033444816054,-47.522023010549866
224.49498327759198,-51.94523952177554
224.8896321070234,-56.15822740858939
225.28428093645482,-60.060030828873536
225.67892976588627,-63.5503616119188
226.07357859531774,-66.53203435756843
226.46822742474916,-68.91405354536528
226.8628762541806,-70.61528295837215
227.25752508361205,-71.56846250099228
227.6521739130435,-71.72419818609036
228.04682274247492,-71.05447427197674
228.44147157190633,-69.5552435623149
228.83612040133778,-67.24774211478929
229.23076923076923,-64.17832555357639
229.62541806020067,-60.41679919577625
230.0200668896321,-56.05337524185632
230.4147157190635,-51.19451042947839
230.80936454849495,-45.957947749060295
231.20401337792643,-40.46731324844775
231.59866220735785,-34.84661885918454
231.9933110367893,-29.215007952480402
232.38795986622074,-23.682056854755167
232.7826086956522,-18.343908508411413
233.1772575250836,-13.280455305207882
233.57190635451502,-8.553701686789113
233.96655518394647,-4.207327828287667
234.36120401337791,-0.2673590067319304
234.75585284280936,3.2562568933325466
235.1505016722408,6.367428364286174
235.54515050167225,9.08134107405239
235.9397993311037,11.421781577082436
236.33444816053512,13.418568334177401
236.72909698996654,15.10522317052657
237.12374581939798,16.51694768756538
237.51839464882943,17.68891548230261
237.91304347826087,18.654858242599964
238.3076923076923,19.445912091859416
238.7023411371237,20.08969605491702
239.09698996655516,20.60961088891888
239.4916387959866,21.024366479219164
239.88628762541805,21.34776248262407
240.2809364548495,21.588754057446838
240.67558528428094,21.751828476241315
241.0702341137124,21.837697880503168
241.4648829431438,21.844280185953725
241.85953177257522,21.76789929777107
242.25418060200667,21.604595513833527
242.64882943143812,21.35140724345651
243.04347826086956,21.007475336612444
243.43812709030107,20.574837206283156
243.83277591973248,20.05881922881021
244.22742474916393,19.467995461870206
244.62207357859535,18.813746198126534
245.0167224080268,18.10950741053098
245.41137123745824,17.369840427178378
245.80602006688966,16.60946431052273
246.2006688963211,15.842381699783383
246.59531772575252,15.081197595943662
246.98996655518397,14.336687823698531
247.38461538461542,13.61762840500909
247.77926421404683,12.93085652353765
248.17391304347828,12.281503877324377
248.5685618729097,11.673327320782995
248.96321070234114,11.109060567949497
249.3578595317726,10.590722742242482
249.752508361204,10.119841035011014
250.14715719063545,9.697570567615603
250.54180602006687,9.324719138251616
250.93645484949832,9.00170295815602
251.33110367892976,8.728468665336663
251.72575250836118,8.504416337485312
252.12040133779263,8.328349920504229
252.51505016722405,8.19846911830367
252.9096989966555,8.112404352702258
253.30434782608694,8.06728696711828
253.69899665551836,8.05984184613726
254.0936454849498,8.086488868997831
254.48829431438122,8.143441870416448
254.88294314381267,8.226797502095707
255.2775919732441,8.332610301539042
255.67224080267553,8.456953632398578
256.06688963210695,8.595968688479246
256.4615384615384,8.745905462186167
256.85618729096984,8.903160575237031
257.2508361204013,9.064317239727869
257.6454849498328,9.22619236005936
258.04013377926424,9.385894783249523
258.4347826086956,9.540896742633894
258.8294314381271,9.689117432193902
259.2240802675585,9.829013493383993
259.61872909698997,9.959666675411507
260.0133779264214,10.08085545244117
260.4080267558528,10.193096836989843
260.8026755852843,10.297648672347892
261.19732441471575,10.396471756133847
261.5919732441472,10.492163690152168
261.98662207357864,10.587888786154876
262.3812709030101,10.687336023190998
262.7759197324415,10.794735935086889
263.1705685618729,10.914955846550319
263.5652173913044,11.053673030974155
263.9598662207358,11.217602346217495
264.35451505016727,11.414735594750043
264.74916387959865,11.654540450305921
265.1438127090301,11.948070619949336
265.53846153846155,12.307955201215771
265.933110367893,12.748259269584587
266.32775919732444,13.284232489284998
266.72240802675583,13.931980738392316
267.1170568561873,14.708102340041098
267.5117056856187,15.629324316507244
267.90635451505017,16.712158203179975
268.3010033444816,17.972575618118576
268.695652173913,19.425688145489467
269.09030100334445,21.08540961402684
269.4849498327759,22.964083281243376
269.87959866220734,25.07206923823661
270.2742474916388,27.417302796688443
270.6688963210702,30.004846047872643
271.0635451505016,32.83645716310676
271.45819397993307,35.91019382783695
271.8528428093645,39.22005103921158
272.24749163879596,42.75561507831574
272.64214046822735,46.50170167629432
273.0367892976588,50.437942980706374
273.43143812709025,54.538297809406565
273.8260869565217,58.770482354676766
274.22073578595314,63.09535063060065
274.6153846153845,67.46629062836674
275.010033444816,71.82873816743684
275.4046822742475,76.11994112091186
275.7993311036789,80.26912792161846
276.19397993311037,84.19824193435159
276.5886287625418,87.82339277396177
276.9832775919732,91.05714172205083
277.37792642140465,93.81167618047701
277.7725752508361,96.00283518205339
278.16722408026754,97.55482711894888
278.56187290969905,98.40534242337483
278.9565217391305,98.51062699152115
279.35117056856194,97.8499732139236
279.74581939799333,96.42903478043219
280.1404682274248,94.28140662133154
280.5351170568562,91.46804952785526
280.92976588628767,88.07437835909717
281.3244147157191,84.20514634410819
281.7190635451505,79.97759315810764
282.11371237458195,75.51361111852471
282.5083612040134,70.93185221119893
282.90301003344484,66.34070165988487
283.2976588628763,61.83287539409423
283.6923076923077,57.482099170422345
284.0869565217391,53.341970508700136
284.4816053511706,49.44677481094896
284.876254180602,45.813790816471084
285.27090301003346,42.44651010178612
285.66555183946485,39.338205377707055
286.0602006688963,36.47538027062033
286.45484949832775,33.84077558453141
286.8494983277592,31.415754269352142
287.24414715719064,29.182012777312522
287.63879598662203,27.12265785201747
288.0334448160535,25.222743847722967
288.4280936454849,23.469391399123637
288.82274247491637,21.851610774896873
289.2173913043478,20.359939639778993
289.6120401337792,18.985981717814948
290.00668896321065,17.721906071722234
290.4013377926421,16.559942113737083
290.79598662207354,15.491887968970854
291.190635451505,14.508642681920556
291.5852842809364,13.599776656808698
291.9799331103678,12.753167192207064
292.37458193979927,11.954741615930853
292.7692307692307,11.188382106930082
293.1638795986622,10.436046640608296
293.55852842809367,9.678144916809998
293.95317725752506,8.894176561985413
294.3478260869565,8.063596896161897
294.74247491638795,7.166833331482827
295.1371237458194,6.18634485391151
295.5317725752509,5.107607291392933
295.92642140468234,3.9199212183560497
296.3210702341138,2.616972801651958
296.7157190635452,1.197120148828134
297.1103678929766,-0.33658355546199703
297.5050167224081,-1.9765931589088395
297.8996655518395,-3.711254872901132
298.29431438127096,-5.52532859619345
298.68896321070235,-7.40061962358722
299.0836120401338,-9.316700621991933
299.47826086956525,-11.251708227087288
299.8729096989967,-13.183192932243726
300.26755852842814,-15.088987851958272
300.66220735785953,-16.9480460313011
301.056856187291,-18.741183068066857
301.4515050167224,-20.451657318725953
301.84615384615387,-22.065527452860746
302.2408026755853,-23.571747445320586
302.6354515050167,-24.961990069916776
303.03010033444815,-26.230226766662305
303.4247491638796,-27.37212790099847
303.81939799331104,-28.384376050020922
304.2140468227425,-29.264000182478203
304.6086956521739,-30.00783680721516
305.0033444816053,-30.612204718412737
305.39799331103677,-31.07284547543861
305.7926421404682,-31.385137708614987
306.18729096989966,-31.544547244035172
306.58193979933105,-31.547235213523837
306.9765886287625,-31.390720521167548
307.37123745819395,-31.07448700986125
307.7658862876254,-30.60044165078619
308.16053511705684,-29.9731655521494
308.5551839464882,-29.19994671421886
308.9498327759197,-28.29062995428934
309.3444816053511,-27.257351454357664
309.73913043478257,-26.114232281885293
310.133779264214,-24.877084416842155
310.5284280936454,-23.563142338031827
310.9230769230769,-22.1907898572257
311.31772575250835,-20.779224736874767
311.7123745819398,-19.34800577216316
312.10702341137124,-17.916459359051824
312.5016722408027,-16.502973076221757
312.8963210702341,-15.12425276406371
313.2909698996656,-13.794648218936521
313.68561872909703,-12.52565085100027
314.0802675585285,-11.325636338670524
314.4749163879599,-10.199878039622206
314.86956521739137,-9.150808131831834
315.26421404682276,-8.17846620205294
315.6588628762542,-7.281056030680344
316.05351170568565,-6.455530589934503
316.4481605351171,-5.698137978634131
316.84280936454854,-5.004880628698683
317.23745819397993,-4.3718608772750445
317.6321070234114,-3.7955042155746668
318.0267558528428,-3.2726656919984762
318.4214046822743,-2.8006350931653468
318.8160535117057,-2.377063344750723
319.2107023411371,-1.9998366953624902
319.60535117056855,-1.6669268778820736
320.0,-1.3762444075400093
