Wavelength(nm),Delta_epsilon(M^-1 cm^-1)
202.0,11.858196095389275
202.39464882943145,12.493997046128895
202.7892976588629,13.159115843169145
203.18394648829434,13.851743783096232
203.57859531772579,14.569488418433885
203.97324414715717,15.309450878752015
204.36789297658862,16.068350080008663
204.76254180602007,16.842683523953852
205.1571906354515,17.628905765633238
205.55183946488296,18.423598676481557
205.9464882943144,19.223604453817998
206.34113712374585,20.026094569477845
206.73578595317724,20.828556039583013
207.1304347826087,21.628689510585083
207.52508361204013,22.42422915211476
207.91973244147158,23.212708756582945
208.31438127090303,23.991208369751902
208.70903010033447,24.7561189329785
209.10367892976586,25.502958339639694
209.4983277591973,26.226262432572227
209.89297658862878,26.919561601343464
210.2876254180602,27.575441014232712
210.68227424749165,28.185672817931373
211.0769230769231,28.741403262621553
211.47157190635454,29.233376552957562
211.86622073578596,29.65217893568583
212.2608695652174,29.988489175520805
212.65551839464885,30.23332342918623
213.05016722408027,30.378262794860568
213.44481605351172,30.415650894904562
213.83946488294316,30.338748167672332
214.23411371237458,30.141830901678578
214.62876254180603,29.82022776833559
215.02341137123747,29.370294823697815
215.4180602006689,28.789340306930626
215.81270903010034,28.07552056936572
216.20735785953178,27.22773531680631
216.6020066889632,26.245551941433853
216.99665551839465,25.129184462449015
217.3913043478261,23.87954362921696
217.78595317725754,22.49836352613865
218.18060200668896,20.98839941659593
218.5752508361204,19.353683797090884
218.96989966555185,17.599823519236498
219.36454849498327,15.734319581342925
219.75919732441474,13.766890808518713
220.1538461538462,11.709780848914603
220.54849498327758,9.578023173628555
220.94314381270902,7.38963109222482
221.33779264214047,5.165671042216322
221.73244147157192,2.930170925324101
222.12709030100336,0.7098149683148972
222.5217391304348,-1.466614220902759
222.91638795986626,-3.5690655168249594
223.31103678929765,-5.5673099261522365
223.7056856187291,-7.432244293204829
224.10033444816054,-9.13732329846401
224.49498327759198,-10.660004606592988
224.88963210702343,-11.983075047599762
225.28428093645488,-13.09572691512528
225.67892976588627,-13.994274191946616
226.0735785953177,-14.682436024091125
226.46822742474916,-15.17116265046775
226.8628762541806,-15.478028707921817
227.25752508361205,-15.626261880285172
227.6521739130435,-15.643504889665584
228.04682274247494,-15.560422877779134
228.44147157190636,-15.40926682551196
228.8361204013378,-15.222489943853681
229.23076923076925,-15.031492321000147
229.62541806020067,-14.865543922343244
230.02006688963212,-14.750910981580354
230.41471571906357,-14.710188668054311
230.80936454849498,-14.761825727266588
231.20401337792643,-14.91981608156273
231.59866220735788,-15.193528994049796
231.9933110367893,-15.58765308569672
232.38795986622074,-16.10223841570275
232.7826086956522,-16.732831496140854
233.17725752508363,-17.470706047337103
233.57190635451505,-18.30319348131589
233.9665551839465,-19.21410959623919
234.36120401337791,-20.18425910014987
234.75585284280936,-21.19198193952998
235.1505016722408,-22.213691492369
235.54515050167225,-23.224350696701638
235.93979933110367,-24.197841777317056
236.33444816053512,-25.107208161443662
236.7290969899666,-25.92477933520806
237.12374581939798,-26.622224130468737
237.51839464882943,-27.170607971510524
237.91304347826087,-27.54054880323608
238.30769230769232,-27.70257070755334
238.70234113712377,-27.627741722250402
239.0969899665552,-27.28865305438732
239.4916387959866,-26.66075224719083
239.88628762541805,-25.723986261973106
240.2809364548495,-24.464647680613876
240.67558528428094,-22.87725698907204
241.0702341137124,-20.966267143649187
241.46488294314383,-18.74735473531607
241.85953177257528,-16.248073933654524
242.25418060200667,-13.50769842158703
242.64882943143812,-10.57615885179432
243.04347826086956,-7.512087957370539
243.438127090301,-4.38009631192834
243.83277591973246,-1.2475011570800487
244.2274247491639,1.8191972176997093
244.6220735785953,4.757763717615364
245.01672240802674,7.513283975162602
245.4113712374582,10.040562294335562
245.80602006688966,12.305682930211931
246.20066889632108,14.286660708089348
246.59531772575252,15.97321423627476
246.9899665551839,17.365787556374347
247.38461538461536,18.47401093476151
247.7792642140468,19.314821931859868
248.17391304347825,19.910464457547477
248.5685618729097,20.286552986595193
248.96321070234114,20.47034187429334
249.3578595317726,20.489286808439346
249.75250836120404,20.369935987101584
250.14715719063548,20.137148452951013
250.54180602006693,19.813608517281317
250.93645484949838,19.419588037669122
251.33110367892976,18.972900591294756
251.7257525083612,18.488990965404405
252.1204013377926,17.981107769223108
252.51505016722405,17.460514765281864
252.9096989966555,16.93670653615433
253.30434782608694,16.41760530552213
253.69899665551839,15.909727012060863
254.09364548494983,15.418314871477508
254.48829431438128,14.947446476396951
254.88294314381272,14.500125100987583
255.27759197324417,14.078366980845727
255.67224080267562,13.683294296188105
256.06688963210706,13.31523938675919
256.46153846153845,12.973860740276779
256.8561872909699,12.658266925617466
257.2508361204013,12.367141966060906
257.64548494983273,12.098865156909882
258.0401337792642,11.85161983019115
258.4347826086956,11.623488278242828
258.8294314381271,11.412532885122824
259.2240802675585,11.216865468230834
259.61872909698997,11.034707308646714
260.0133779264214,10.86444136284691
260.40802675585286,10.704656283234801
260.8026755852843,10.554180021349213
261.1973244147158,10.412099780085367
261.59197324414714,10.277765381363896
261.9866220735786,10.150774671004298
262.38127090301,10.03094189972437
262.7759197324414,9.918252394481822
263.17056856187287,9.812808627701392
263.5652173913043,9.714773630639813
263.95986622073576,9.624317544306995
264.3545150501672,9.54157218887517
264.74916387959865,9.466597213005928
265.14381270903016,9.399359978007997
265.53846153846155,9.339730029164842
265.93311036789305,9.287487855603837
266.3277591973245,9.242346598245048
266.72240802675583,9.203984381451269
267.11705685618733,9.172084025941434
267.51170568561867,9.14637614241678
267.9063545150501,9.126681166533736
268.3010033444816,9.112945943420256
268.695652173913,9.105271107610053
269.0903010033445,9.103926715097055
269.48494983277595,9.10935520987631
269.8795986622074,9.122162574642818
270.27424749163885,9.143100102458817
270.6688963210703,9.173040345516206
271.06354515050174,9.212951264705747
271.4581939799331,9.263872373244563
271.8528428093646,9.326895822849593
272.247491638796,9.403154098474607
272.64214046822735,9.493814490306123
273.03678929765886,9.600079029446496
273.4314381270903,9.723187317397885
273.82608695652175,9.864418823647194
274.2207357859532,10.02509089286836
274.61538461538464,10.20654894833786
275.0100334448161,10.410146179069194
275.40468227424753,10.63721126285161
275.799331103679,10.889004270197555
276.1939799331104,11.166662672972334
276.5886287625419,11.471141225554168
276.98327759197326,11.803151296625172
277.37792642140465,12.163106894635412
277.7725752508361,12.55108597305689
278.16722408026754,12.966816340899719
278.561872909699,13.409695258284007
278.95652173913044,13.87885015628411
279.3511705685619,14.373244576544929
279.74581939799333,14.891828331526684
280.1404682274248,15.433724394866156
280.5351170568562,15.998437972769267
280.92976588628767,16.586066843826924
281.3244147157191,17.1974878867543
281.71906354515056,17.834494130152695
282.11371237458195,18.499860474173644
282.50836120401334,19.197324280983636
282.9030100334448,19.931477959095336
283.29765886287623,20.707582149348823
283.6923076923077,21.531317474424565
284.0869565217391,22.40849784654447
284.4816053511706,23.34476806907793
284.876254180602,24.345303462361496
285.27090301003346,25.414521286291546
285.6655518394649,26.55580518717592
286.06020066889636,27.77123693657071
286.4548494983278,29.061325803427554
286.8494983277592,30.424725581425626
287.24414715719064,31.85793246089706
287.63879598662203,33.354963104608835
288.0334448160535,34.907020889044624
288.4280936454849,36.5021687575927
288.82274247491637,38.12503887515931
289.2173913043478,39.756621343138946
289.61204013377926,41.37418511957918
290.0066889632107,42.9513917225319
290.40133779264215,44.45866328513588
290.7959866220736,45.86385775415061
291.19063545150505,47.13328263285787
291.5852842809365,48.233043490594206
291.9799331103679,49.1306763093859
292.3745819397993,49.79695935223273
292.7692307692307,50.20775021178149
293.16387959866216,50.34565894030221
293.5585284280936,50.20135991611377
293.95317725752506,49.77437028180053
294.3478260869565,49.073180939880885
294.74247491638795,48.11470833723993
295.1371237458194,46.92312598929939
295.53177257525084,45.52821556553825
295.9264214046823,43.96343241347016
296.32107023411373,42.26390031485784
296.7157190635452,40.46453443420376
297.11036789297657,38.59844725821824
297.505016722408,36.69573237132487
297.8996655518394,34.782658871335116
298.29431438127085,32.881256404175055
298.6889632107023,31.009233913277107
299.08361204013374,29.18015598453165
299.4782608695652,27.403796870768588
299.87290969899664,25.68659943619941
300.26755852842814,24.032179453497214
300.66220735785953,22.441830790600367
301.05685618729103,20.91500127404228
301.4515050167225,19.449720988774093
301.8461538461539,18.042974055412596
302.2408026755853,16.69101168478618
302.6354515050167,15.389608960100256
303.0301003344481,14.134270788237574
303.42474916387954,12.920394189405107
303.819397993311,11.743394883427815
304.2140468227425,10.598806245884571
304.60869565217394,9.48235836425303
305.0033444816054,8.390044296419264
305.3979933110368,7.318179850570344
305.7926421404683,6.2634623495126975
306.1872909698997,5.223032949443331
306.58193979933117,4.194546143345085
306.9765886287626,3.1762490418653613
307.371237458194,2.167071805599432
307.76588628762545,1.1667290950037799
308.16053511705684,0.17583049355270647
308.5551839464883,-0.8040045506777641
308.94983277591973,-1.7700346736182222
309.3444816053512,-2.7182982801669002
309.7391304347826,-3.643543508014514
310.13377926421407,-4.539204512880745
310.5284280936455,-5.397444688543602
310.92307692307696,-6.2092880697298
311.3177257525084,-6.964857681977055
311.71237458193986,-7.6537328761983705
312.1070234113713,-8.265426034305893
312.5016722408027,-8.789962696629477
312.8963210702341,-9.21852975036155
313.2909698996655,-9.544136994409838
313.685618729097,-9.762222572656766
314.0802675585284,-9.871127178380194
314.47491638795987,-9.872369198239115
314.8695652173913,-9.770674078366795
315.26421404682276,-9.573743559155558
315.6588628762542,-9.291787992831237
316.05351170568565,-8.936879656467713
316.4481605351171,-8.522209008807867
316.84280936454854,-8.061334049458763
317.23745819398,-7.567504297260189
317.6321070234114,-7.053118642063472
318.02675585284277,-6.529346713040599
318.4214046822742,-6.0059137498131605
318.81605351170566,-5.491025535049245
319.2107023411371,-4.991396518091993
319.60535117056855,-4.512341523681323
320.0,-4.057897365215206
