Wavelength(nm),Delta_epsilon(M^-1 cm^-1)
202.0,8.99488831259326
202.39464882943142,8.987546139490783
202.7892976588629,8.967245131790186
203.18394648829428,8.933659167317739
203.57859531772576,8.88649324229623
203.97324414715717,8.825485047900552
204.36789297658862,8.75040637416183
204.76254180602007,8.661064328191937
205.15719063545149,8.557302355158138
205.55183946488296,8.439001052056588
205.94648829431435,8.306078766099445
206.34113712374582,8.158491971425196
206.73578595317724,7.9962354198495476
207.1304347826087,7.819342063470673
207.52508361204013,7.627882749107146
207.91973244147155,7.421965686754566
208.31438127090303,7.201735696471922
208.70903010033442,6.96737324032512
209.1036789297659,6.719093248195041
209.4983277591973,6.45714374837493
209.89297658862876,6.181804315908538
210.2876254180602,5.893384353530375
210.68227424749165,5.59222122183659
211.0769230769231,5.2786782369170515
211.47157190635448,4.953142555089352
211.86622073578596,4.616022965579297
212.26086956521738,4.267747612966023
212.65551839464882,3.9087616719421034
213.05016722408027,3.5395249974157275
213.44481605351172,3.1605097731933034
213.83946488294316,2.772198182424951
214.23411371237455,2.3750801226622835
214.62876254180603,1.9696509877793513
215.02341137123744,1.5564095381393317
215.4180602006689,1.1358558792646678
215.81270903010034,0.7084895678996727
216.20735785953178,0.2748078627541865
216.60200668896323,-0.16469586459347133
216.99665551839462,-0.6095335451568247
217.3913043478261,-1.0592236430531965
217.7859531772575,-1.513292192060303
218.18060200668896,-1.9712736316267216
218.5752508361204,-2.432711438240779
218.96989966555185,-2.8971585506085544
219.3645484949833,-3.364177589653423
219.75919732441469,-3.8333408769010484
220.15384615384616,-4.30423025731266
220.54849498327758,-4.7764367350567545
220.94314381270902,-5.249559933026552
221.33779264214047,-5.723207389089254
221.73244147157192,-6.19699370407381
222.12709030100334,-6.670539558331072
222.52173913043475,-7.143470615322588
222.91638795986623,-7.6154163320823045
223.31103678929765,-8.086008697543793
223.7056856187291,-8.55488092060989
224.10033444816054,-9.021666090460904
224.49498327759198,-9.485995831942589
224.8896321070234,-9.94749897893911
225.28428093645482,-10.40580028842865
225.6789297658863,-10.860519217434451
226.0735785953177,-11.311268784335558
226.46822742474916,-11.757654534999709
226.8628762541806,-12.199273632952618
227.25752508361205,-12.63571409132942
227.65217391304347,-13.066554162674247
228.0468227424749,-13.491361900790661
228.44147157190636,-13.909694906816982
228.83612040133778,-14.321100269533702
229.23076923076923,-14.725114707629777
229.62541806020067,-15.121264919285196
230.02006688963212,-15.509068142001643
230.41471571906354,-15.888032923151034
230.80936454849495,-16.257660099247506
231.2040133779264,-16.61744397950738
231.59866220735785,-16.966873726865064
231.9933110367893,-17.30543492729976
232.38795986622074,-17.632611336103334
232.7826086956522,-17.947886787629276
233.1772575250836,-18.25074725310821
233.57190635451502,-18.540683029331525
233.96655518394647,-18.817191039398217
234.36120401337791,-19.079777225318413
234.75585284280936,-19.327959011070625
235.1505016722408,-19.56126781374217
235.54515050167225,-19.77925157964467
235.93979933110367,-19.981477321797346
236.3344481605351,-20.16753363491618
236.72909698996654,-20.337033164034562
237.12374581939798,-20.48961500311205
237.51839464882943,-20.624947000460327
237.91304347826087,-20.742727948516304
238.30769230769232,-20.842689636425188
238.70234113712374,-20.924598745036256
239.0969899665552,-20.9882585652626
239.4916387959866,-21.033510522286598
239.88628762541808,-21.06023548979644
240.2809364548495,-21.068354880296358
240.67558528428094,-21.057831499521185
241.0702341137124,-21.028670155087717
241.4648829431438,-20.980918011708823
241.85953177257522,-20.914664687555483
242.25418060200667,-20.830042088660306
242.64882943143814,-20.727223980582966
243.04347826086956,-20.60642529888595
243.438127090301,-20.467901202273648
243.83277591973246,-20.311945874502502
244.22742474916384,-20.13889108336242
244.6220735785953,-19.949104507126375
245.01672240802674,-19.742987840860582
245.4113712374582,-19.5209746968508
245.8060200668897,-19.283528315125068
246.20066889632108,-19.03113910161904
246.59531772575252,-18.76432201292532
246.9899665551839,-18.483613807785225
247.38461538461536,-18.189570186506163
247.7792642140468,-17.88276284032077
248.17391304347828,-17.563776433335313
248.56856187290975,-17.233205540145114
248.96321070234114,-16.891651562426958
249.3578595317726,-16.539719647847583
249.75250836120398,-16.178015634467815
250.14715719063543,-15.807143043471449
250.54180602006687,-15.42770014251911
250.93645484949835,-15.040277101329519
251.33110367892982,-14.645453260233195
251.7257525083612,-14.24379453143957
252.12040133779266,-13.835850951622447
252.51505016722405,-13.422154403170646
252.9096989966555,-13.00321652008924
253.30434782608694,-12.579526793083934
253.6989966555184,-12.151550886830858
254.09364548494986,-11.719729180843457
254.48829431438125,-11.284475543706991
254.88294314381272,-10.846176348778956
255.2775919732441,-10.405189737754702
255.67224080267556,-9.96184513679166
256.066889632107,-9.51644302818
256.46153846153845,-9.069254978848068
256.85618729096996,-8.620523925317267
257.25083612040135,-8.170464713066169
257.6454849498328,-7.719264886647342
258.0401337792642,-7.2670857253193955
258.4347826086956,-6.8140635174181545
258.8294314381271,-6.36031106520078
259.2240802675585,-5.905919410450709
259.61872909699,-5.450959769742601
260.0133779264214,-4.9954856669219865
260.40802675585286,-4.539535249071191
260.80267558528425,-4.083133770999249
261.1973244147157,-3.626296232116461
261.59197324414714,-3.1690301484362475
261.9866220735786,-2.7113384413838184
262.3812709030101,-2.2532224240925705
262.7759197324415,-1.7946848649299152
263.1705685618729,-1.3357331071261678
263.5652173913043,-0.8763822225805037
263.95986622073576,-0.41665817719603254
264.3545150501672,0.043399015540782154
264.74916387959865,0.5037321765704508
265.14381270903016,0.9642639031413279
265.53846153846155,1.4248935951838493
265.933110367893,1.8854945910205099
266.3277591973244,2.345911437348282
266.72240802675583,2.8059573183819357
267.1170568561873,3.2654116688466046
267.5117056856187,3.724017995146504
267.9063545150502,4.181481928498458
268.3010033444816,4.637469533098269
268.69565217391306,5.09160589146871
269.0903010033445,5.543473988019133
269.4849498327759,5.9926139105142315
269.87959866220734,6.438522387601704
270.2742474916388,6.880652678780551
270.6688963210703,7.318414831205775
271.0635451505017,7.751176315518266
271.4581939799331,8.17826305046783
271.8528428093646,8.598960823475377
272.24749163879596,9.012517111456932
272.6421404682274,9.418143303237429
273.03678929765886,9.815017321717418
273.43143812709036,10.202286640661121
273.82608695652175,10.579071687556496
274.2207357859532,10.944469620500454
274.61538461538464,11.297558463506205
275.01003344481603,11.637401581057523
275.4046822742475,11.963052469175464
275.7993311036789,12.273559836760576
276.1939799331104,12.567972947568546
276.5886287625418,12.845347189907182
276.98327759197326,13.104749838052296
277.3779264214047,13.345265966511974
277.7725752508361,13.566004475661071
278.16722408026754,13.766104184964014
278.561872909699,13.9447399480362
278.9565217391305,14.101128742206388
279.3511705685619,14.234535684054048
279.74581939799333,14.344279921647189
280.1404682274248,14.429740353908933
280.53511705685617,14.490361127724313
280.9297658862876,14.52565686406391
281.32441471571906,14.535217565566139
281.71906354515056,14.51871315967558
282.11371237458195,14.47589763358332
282.5083612040134,14.406612719840526
282.90301003344484,14.310791094599923
283.29765886287623,14.188459053959093
283.6923076923077,14.039738637803646
284.0869565217391,13.864849174837563
284.4816053511706,13.664108227105505
284.87625418060196,13.437931917206924
285.27090301003346,13.186834626526752
285.6655518394649,12.911428058106532
286.0602006688963,12.612419663194599
286.45484949832775,12.29061043598993
286.8494983277592,11.946892086565137
287.24414715719064,11.582243607366571
287.63879598662203,11.197727253973786
288.03344481605353,10.794483965911787
288.428093645485,10.373728258176032
288.82274247491637,9.936742618711898
289.2173913043478,9.48487145132962
289.61204013377926,9.019514607390727
290.0066889632107,8.542120553032873
290.4013377926421,8.054179221670658
290.7959866220736,7.557214603994742
291.19063545150505,7.052777129666365
291.58528428093643,6.542435896351025
291.9799331103679,6.027770802654363
292.3745819397993,5.510364641898423
292.7692307692308,4.991795213525974
293.16387959866216,4.473627508243243
293.55852842809367,3.95740602183285
293.9531772575251,3.4446472509056543
294.3478260869565,2.936832421738371
294.74247491638795,2.4354005008037447
295.1371237458194,1.9417415326663705
295.53177257525084,1.4571903476371904
295.92642140468223,0.9830206779919786
296.32107023411373,0.5204397177068647
296.7157190635452,0.07058315659845582
297.11036789297657,-0.36548928448861356
297.505016722408,-0.7867977951673805
297.89966555183946,-1.192445875833383
298.2943143812709,-1.581623183478518
298.68896321070235,-1.9536078141158122
299.0836120401338,-2.3077680173625637
299.47826086956525,-2.6435633430690393
299.87290969899664,-2.9605452240957972
300.2675585284281,-3.2583570034041998
300.66220735785953,-3.5367334175020786
301.056856187291,-3.7954995519534784
301.4515050167224,-4.034569288095601
301.8461538461538,-4.253943263287988
302.2408026755853,-4.453706369933293
302.6354515050167,-4.634024821142742
303.03010033444815,-4.795142813263519
303.4247491638796,-4.9373788175322195
303.81939799331104,-5.06112153486647
304.2140468227425,-5.166825549252848
304.6086956521739,-5.255006716334113
305.0033444816054,-5.3262373246484005
305.39799331103677,-5.381141067528888
305.7926421404682,-5.420387863943212
306.18729096989966,-5.444688566546478
306.5819397993311,-5.4547895949468295
306.97658862876256,-5.451467531650525
307.37123745819395,-5.4355237173767685
307.76588628762545,-5.407778881419862
308.16053511705684,-5.369067841504962
308.5551839464883,-5.320234306144046
308.94983277591973,-5.262125810866974
309.3444816053512,-5.195588817893604
309.7391304347826,-5.121464006840291
310.133779264214,-5.040581781937835
310.5284280936455,-4.953758018989289
310.9230769230769,-4.861790072937679
311.31772575250835,-4.765453064458437
311.7123745819398,-4.665496461460885
312.10702341137124,-4.56264096879387
312.5016722408027,-4.457575736821855
312.8963210702341,-4.350955896890006
313.2909698996656,-4.2434004290476635
313.685618729097,-4.135490364770018
314.0802675585284,-4.027767324826975
314.47491638795987,-3.9207323899154
314.8695652173913,-3.814845299216036
315.26421404682276,-3.7105239696770824
315.65886287625415,-3.608144326581617
316.05351170568565,-3.508040433842559
316.44816053511704,-3.4105049105033483
316.8428093645485,-3.3157896181179236
317.23745819397993,-3.2241066020568643
317.6321070234114,-3.1356292683460976
318.0267558528428,-3.0504937764011775
318.4214046822742,-2.9688006269841907
318.8160535117057,-2.890616423884535
319.2107023411371,-2.815975787214108
319.60535117056855,-2.744883395814223
320.0,-2.6773161360945967
