Wavelength(nm),Delta_epsilon(M^-1 cm^-1)
202.0,16.51278231590407
202.39464882943145,17.108653853361552
202.7892976588629,17.70748634918029
203.18394648829434,18.307271577432218
203.57859531772579,18.905852703460525
203.97324414715717,19.500928491785768
204.36789297658862,20.09005906749724
204.76254180602007,20.670673294237726
205.1571906354515,21.240077818316024
205.55183946488296,21.795467812952825
205.9464882943144,22.333939439209015
206.34113712374585,22.852504020806442
206.73578595317724,23.348103908940093
207.1304347826087,23.817629990427495
207.52508361204013,24.257940768354295
207.91973244147158,24.6658829189924
208.31438127090303,25.03831320249652
208.70903010033447,25.372121578081114
209.10367892976586,25.664255347460323
209.4983277591973,25.91174412375639
209.89297658862878,26.111725397364594
210.2876254180602,26.261470445956537
210.68227424749165,26.358410313491227
211.0769230769231,26.40016156339538
211.47157190635454,26.384551494586194
211.86622073578596,26.30964249635041
212.2608695652174,26.173755209857536
212.65551839464885,25.97549016081871
213.05016722408027,25.71374753000855
213.44481605351172,25.38774473645703
213.83946488294316,24.997031522427353
214.23411371237458,24.54150225002836
214.62876254180603,24.021405146563392
215.02341137123747,23.43734826942416
215.4180602006689,22.790302001292215
215.81270903010034,22.08159793223405
216.20735785953178,21.312924036420355
216.6020066889632,20.486316106953943
216.99665551839465,19.60414547177013
217.3913043478261,18.669103075744484
217.78595317725754,17.68418007781925
218.18060200668896,16.652645175855355
218.5752508361204,15.578018934619182
218.96989966555185,14.46404545237448
219.36454849498327,13.314661757463378
219.75919732441474,12.133965376548808
220.1538461538462,10.92618055940745
220.54849498327758,9.695623679948579
220.94314381270902,8.446668358282064
221.33779264214047,7.1837108631080415
221.73244147157192,5.911136356611457
222.12709030100336,4.633286534841729
222.5217391304348,3.3544291949134375
222.91638795986626,2.078730226273074
223.31103678929765,0.8102284770568604
223.7056856187291,-0.4471861111589881
224.10033444816054,-1.6897907751690393
224.49498327759198,-2.91404436097279
224.88963210702343,-4.116597751276543
225.28428093645488,-5.294300218314956
225.67892976588627,-6.444201725411777
226.0735785953177,-7.563551296959242
226.46822742474916,-8.649791671871611
226.8628762541806,-9.700550547620011
227.25752508361205,-10.713628808217127
227.6521739130435,-11.686986207630103
228.04682274247494,-12.618725047802252
228.44147157190636,-13.507072445721883
228.8361204013378,-14.350361825015163
229.23076923076925,-15.147014292915282
229.62541806020067,-15.895520572094133
230.02006688963212,-16.594424148092934
230.41471571906357,-17.242306266733923
230.80936454849498,-17.83777337222223
231.20401337792643,-18.37944751636914
231.59866220735788,-18.865960193706066
231.9933110367893,-19.295949967851776
232.38795986622074,-19.668064153401147
232.7826086956522,-19.980964707245708
233.17725752508363,-20.233338366335037
233.57190635451505,-20.42391094840213
233.9665551839465,-20.551465611219598
234.36120401337791,-20.61486474771547
234.75585284280936,-20.613075081932347
235.1505016722408,-20.545195427430315
235.54515050167225,-20.41048647819494
235.93979933110367,-20.208401925026855
236.33444816053512,-19.9386201300109
236.7290969899666,-19.601075549832768
237.12374581939798,-19.195989076791726
237.51839464882943,-18.723896465194077
237.91304347826087,-18.185674030697545
238.30769230769232,-17.58256085084564
238.70234113712377,-16.916176755656657
239.0969899665552,-16.188535476348875
239.4916387959866,-15.402052416209287
239.88628762541805,-14.55954661792834
240.2809364548495,-13.664236623694123
240.67558528428094,-12.719730054924696
241.0702341137124,-11.730006874448385
241.46488294314383,-10.699396431784383
241.85953177257528,-9.632548528488236
242.25418060200667,-8.534398871868671
242.64882943143812,-7.410129408512262
243.04347826086956,-6.265124140925573
243.438127090301,-5.104921128509844
243.83277591973246,-3.935161455719429
244.2274247491639,-2.761536013739738
244.6220735785953,-1.5897309860075204
245.01672240802674,-0.42537295154031335
245.4113712374582,0.7260254769249535
245.80602006688966,1.8591185803234584
246.20066889632108,2.968778163425467
246.59531772575252,4.050141080217799
246.9899665551839,5.09865291871505
247.38461538461536,6.110107195638485
247.7792642140468,7.080679509639223
248.17391304347825,8.006956209339993
248.5685618729097,8.885957246579165
248.96321070234114,9.715153002967917
249.3578595317726,10.492474996310326
249.75250836120404,11.216320489789275
250.14715719063548,11.88555113843056
250.54180602006693,12.499485911821363
250.93645484949838,13.057888627243917
251.33110367892976,13.560950511494788
251.7257525083612,14.00926828127485
252.1204013377926,14.403818290105322
252.51505016722405,14.745927333620003
252.9096989966555,15.037240734542653
253.30434782608694,15.279688343820041
253.69899665551839,15.475449095719622
254.09364548494983,15.62691474301757
254.48829431438128,15.73665337477624
254.88294314381272,15.807373284938883
255.27759197324417,15.841887716540516
255.67224080267562,15.843080955352335
256.06688963210706,15.813876189924313
256.46153846153845,15.757205493967255
256.8561872909699,15.67598222349723
257.2508361204013,15.57307605675826
257.64548494983273,15.451290841140441
258.0401337792642,15.313345349481516
258.4347826086956,15.161856989471785
258.8294314381271,14.99932845539457
259.2240802675585,14.828137261939881
259.61872909698997,14.650528055959363
260.0133779264214,14.468607564203447
260.40802675585286,14.284342003547748
260.8026755852843,14.099556755025318
261.1973244147158,13.915938084044702
261.59197324414714,13.735036676249656
261.9866220735786,13.55827275119764
262.38127090301,13.386942513949863
262.7759197324414,13.222225707232358
263.17056856187287,13.065194033456784
263.5652173913043,12.916820225961231
263.95986622073576,12.777987561702009
264.3545150501672,12.649499622671815
264.74916387959865,12.532090129920045
265.14381270903016,12.42643269163301
265.53846153846155,12.333150324756273
265.93311036789305,12.252824627630027
266.3277591973245,12.186004498633466
266.72240802675583,12.133214312536925
267.11705685618733,12.094961481839318
267.51170568561867,12.071743344596792
267.9063545150501,12.064053332947365
268.3010033444816,12.07238638760806
268.695652173913,12.097243593005526
269.0903010033445,12.139136015410289
269.48494983277595,12.198587732528704
269.8795986622074,12.276138047567963
270.27424749163885,12.372342883967967
270.6688963210703,12.487775358969738
271.06354515050174,12.623025535169745
271.4581939799331,12.778699349430875
271.8528428093646,12.955416718238792
272.247491638796,13.153808818078847
272.64214046822735,13.374514538948834
273.03678929765886,13.61817610899717
273.4314381270903,13.885433888770915
273.82608695652175,14.176920334948177
274.2207357859532,14.493253135965237
274.61538461538464,14.835027525868039
275.0100334448161,15.20280778821416
275.40468227424753,15.597117969087206
275.799331103679,16.018431827362676
276.1939799331104,16.46716206134322
276.5886287625419,16.94364886374274
276.98327759197326,17.4481478716638
277.37792642140465,17.980817594527462
277.7725752508361,18.54170642063887
278.16722408026754,19.13073932189679
278.561872909699,19.747704395691272
278.95652173913044,20.39223940280528
279.3511705685619,21.063818479626388
279.74581939799333,21.76173922157943
280.1404682274248,22.48511035178085
280.5351170568562,23.232840203826303
280.92976588628767,24.003626259667364
281.3244147157191,24.79594599205413
281.71906354515056,25.60804926536355
282.11371237458195,26.437952548218988
282.50836120401334,27.28343518562212
282.9030100334448,28.142037966943956
283.29765886287623,29.011064208776734
283.6923076923077,29.887583548173257
284.0869565217391,30.768438612202424
284.4816053511706,31.65025469421265
284.876254180602,32.529452526069335
285.27090301003346,33.40226418945302
285.6655518394649,34.264752158805166
286.06020066889636,35.112831414550016
286.4548494983278,35.94229450887787
286.8494983277592,36.748839408797195
287.24414715719064,37.528099883658896
287.63879598662203,38.275678148270515
288.0334448160535,38.98717941946882
288.4280936454849,39.65824799498955
288.82274247491637,40.284604420048524
289.2173913043478,40.862083270479786
289.61204013377926,41.386671052743054
290.0066889632107,41.85454370158204
290.40133779264215,42.26210314639296
290.7959866220736,42.60601241799929
291.19063545150505,42.88322877882524
291.5852842809365,43.0910343814613
291.9799331103679,43.227063993058316
292.3745819397993,43.289329365345154
292.7692307692307,43.27623988154405
293.16387959866216,43.18661917098251
293.5585284280936,43.019717448501666
293.95317725752506,42.77521940733876
294.3478260869565,42.45324756938766
294.74247491638795,42.05436107386356
295.1371237458194,41.5795499626082
295.53177257525084,41.030225095752066
295.9264214046823,40.408203903437176
296.32107023411373,39.71569224611343
296.7157190635452,38.95526271603057
297.11036789297657,38.12982976461563
297.505016722408,37.24262208333718
297.8996655518394,36.29715269855936
298.29431438127085,35.29718726319978
298.6889632107023,34.246711039458894
299.08361204013374,33.14989506747786
299.4782608695652,32.011062004837584
299.87290969899664,30.834652101911193
300.26755852842814,29.62518974906301
300.66220735785953,28.387250994634766
301.05685618729103,27.125432388812392
301.4515050167225,25.84432145923985
301.8461538461539,24.548469071149245
302.2408026755853,23.242363869355906
302.6354515050167,21.930408943302073
303.0301003344481,20.616900800947096
303.42474916387954,19.306010684124573
303.819397993311,18.00176820835892
304.2140468227425,16.708047265177694
304.60869565217394,15.428554085672873
305.0033444816054,14.166817331179038
305.3979933110368,12.92618005100203
305.7926421404683,11.709793328425837
306.1872909698997,10.520611424824159
306.58193979933117,9.361388227431856
306.9765886287626,8.234674808829176
307.371237458194,7.142817914880188
307.76588628762545,6.08795921202758
308.16053511705684,5.072035143610131
308.5551839464883,4.096777267266725
308.94983277591973,3.1637129704989175
309.3444816053512,2.274166488001947
309.7391304347826,1.4292601713963655
310.13377926421407,0.6299159884611156
310.5284280936455,-0.12314274606080079
310.92307692307696,-0.8293893834110628
311.3177257525084,-1.4884916533394503
311.71237458193986,-2.1003090162273503
312.1070234113713,-2.664889583186562
312.5016722408027,-3.182466525303867
312.8963210702341,-3.6534538905617087
313.2909698996655,-4.078441748854557
313.685618729097,-4.458190591753481
314.0802675585284,-4.793624923918673
314.47491638795987,-5.085825996864544
314.8695652173913,-5.336023652592472
315.26421404682276,-5.545587263779887
315.6588628762542,-5.716015778047875
316.05351170568565,-5.848926895601687
316.4481605351171,-5.946045431495632
316.84280936454854,-6.009190935202083
317.23745819398,-6.040264660368551
317.6321070234114,-6.04123599600438
318.02675585284277,-6.014128486293134
318.4214046822742,-5.9610055793209575
318.81605351170566,-5.883956254883181
319.2107023411371,-5.785080687931128
319.60535117056855,-5.66647610701191
320.0,-5.530223006206556
