Wavelength(nm),Δε_Gaussian
202,9.52749039450227
202.394648829431,11.5755045836515
202.789297658863,13.7897683245113
203.183946488294,16.1669421251255
203.578595317726,18.7018000144427
203.973244147157,21.3871929574144
204.367892976589,24.2140388098436
204.76254180602,27.1713395345711
205.157190635451,30.246225841817
205.551839464883,33.424028858263
205.946488294314,36.6883778890835
206.341137123746,40.0213228311411
206.735785953177,43.4034793390512
207.130434782609,46.8141944517742
207.52508361204,50.2317300662298
207.919732441472,53.6334614033976
208.314381270903,56.9960874554197
208.709030100334,60.2958503296855
209.103678929766,63.5087604145728
209.498327759197,66.6108243748366
209.892976588629,69.5782731328911
210.28762541806,72.3877871931811
210.682274247492,75.016716906182
211.076923076923,77.4432955308018
211.471571906355,79.6468432230664
211.866220735786,81.6079603393501
212.260869565217,83.3087086796567
212.655518394649,84.7327794982652
213.05016722408,85.8656472658473
213.444816053512,86.6947082728201
213.839464882943,87.2094032159541
214.234113712375,87.4013229109608
214.628762541806,87.2642962290362
215.023411371237,86.7944592752235
215.418060200669,85.9903047247355
215.8127090301,84.852710126785
216.207357859532,83.3849438929508
216.602006688963,81.5926476287586
216.996655518395,79.4837934631348
217.391304347826,77.0686150996806
217.785953177257,74.3595114728987
218.180602006689,71.3709221545771
218.57525083612,68.1191740288546
218.969899665552,64.6222992418346
219.364548494983,60.8998250295583
219.759197324415,56.9725367266881
220.153846153846,52.8622160406735
220.548494983278,48.5913575194597
220.943143812709,44.1828670161149
221.33779264214,39.6597468275129
221.732441471572,35.0447730192649
222.127090301003,30.3601712062905
222.521739130435,25.6272976982742
222.916387959866,20.8663334037272
223.311036789298,16.0959981808233
223.705685618729,11.3332933979785
224.100334448161,6.59328029944815
224.494983277592,1.88890134630305
224.889632107023,-2.76914898452782
225.284280936455,-7.37249840639514
225.678929765886,-11.9151116870396
226.073578595318,-16.3932432316661
226.468227424749,-20.8053260383457
226.862876254181,-25.1517974124483
227.257525083612,-29.4348636506074
227.652173913043,-33.6582077627877
228.046822742475,-37.8266461335083
228.441471571906,-41.9457417686512
228.836120401338,-46.0213833716958
229.230769230769,-50.0593408846389
229.625418060201,-54.0648092612359
230.020066889632,-58.0419530674673
230.414715719064,-61.9934649889833
230.809364548495,-65.9201514405335
231.204013377926,-69.8205582022291
231.598662207358,-73.6906483480679
231.993311036789,-77.5235436920045
232.387959866221,-81.3093395767476
232.782608695652,-85.0350011029226
233.177257525084,-88.6843468847133
233.571906354515,-92.2381241756292
233.966555183946,-95.6741767958667
234.361204013378,-98.967704778356
234.755852842809,-102.091612105854
235.150501672241,-105.016936410375
235.545150501672,-107.713352122765
235.939799331104,-110.149736365946
236.334448160535,-112.294784947361
236.729096989967,-114.117664184842
237.123745819398,-115.588683047384
237.518394648829,-116.67996924976
237.913043478261,-117.366132537371
238.307692307692,-117.624898452468
238.702341137124,-117.437696388496
239.096989966555,-116.790186705693
239.491638795987,-115.672713074589
239.886287625418,-114.080667997765
240.280936454849,-112.01476158527
240.675585284281,-109.481186065867
241.070234113712,-106.491671136176
241.464882943144,-103.063428007482
241.859531772575,-99.2189828255597
242.254180602007,-94.9859029305967
242.648829431438,-90.3964221109968
243.04347826087,-85.4869735088101
243.438127090301,-80.2976410838765
243.832775919732,-74.8715424748735
244.227424749164,-69.2541576550966
244.622073578595,-63.4926189277839
245.016722408027,-57.6349785123866
245.411371237458,-51.7294702257755
245.80602006689,-45.8237815619964
246.200668896321,-39.964351836043
246.595317725753,-34.1957110101249
246.989966555184,-28.5598724062412
247.384615384615,-23.0957907784269
247.779264214047,-17.838895232477
248.173913043478,-12.8207043071243
248.56856187291,-8.06852823958892
248.963210702341,-3.60526110219282
249.357859531773,0.550736813548253
249.752508361204,4.3856682059244
250.147157190635,7.89024346783102
250.541806020067,11.0595466434778
250.936454849498,13.8928299932716
251.33110367893,16.3932458358063
251.725752508361,18.5675253379994
252.120401337793,20.4256146041522
252.515050167224,21.9802787714018
252.909698996656,23.2466848624996
253.304347826087,24.2419738964432
253.698996655518,24.9848322408421
254.09364548495,25.4950714413697
254.488294314381,25.7932248227293
254.882943143813,25.9001680650519
255.277591973244,25.8367697639733
255.672240802676,25.6235767261393
256.066889632107,25.2805374772706
256.461538461538,24.8267662068666
256.85618729097,24.2803481776932
257.250836120401,23.6581865198648
257.645484949833,22.9758893334144
258.040133779264,22.2476951585242
258.434782608696,21.4864341517045
258.829431438127,20.7035217358205
259.224080267558,19.9089810729824
259.61872909699,19.1114904378542
260.013377926421,18.3184514363899
260.408026755853,17.5360740091809
260.802675585284,16.7694742645081
261.197324414716,16.022781386825
261.591973244147,15.299250143611
261.986622073579,14.601375848794
262.38127090301,13.9310090160398
262.775919732442,13.2894673328836
263.170568561873,12.6776429911025
263.565217391304,12.096103805919
263.959866220736,11.5451869346894
264.354515050167,11.0250843550734
264.749163879599,10.5359195760088
265.14381270903,10.0778153271478
265.538461538461,9.65095220095581
265.933110367893,9.25561840559885
266.327759197324,8.89225092704875
266.722408026756,8.56146849796102
267.117056856187,8.26409683253874
267.511705685619,8.00118661540688
267.90635451505,7.77402473376142
268.301003344482,7.58413922137677
268.695652173913,7.43329834623483
269.090301003344,7.32350422626887
269.484949832776,7.25698130540104
269.879598662207,7.23615996966612
270.274247491639,7.26365553516149
270.66889632107,7.34224279959908
271.063545150502,7.47482632039481
271.458193979933,7.66440656680146
271.852842809365,7.91404209309299
272.247491638796,8.22680789501165
272.642140468227,8.60575014263696
273.036789297659,9.05383752888632
273.43143812709,9.57390953273879
273.826086956522,10.168621968145
274.220735785953,10.8403902711139
274.615384615385,11.5913310658905
275.010033444816,12.4232026433613
275.404682274248,13.3373450775051
275.799331103679,14.3346207953143
276.19397993311,15.4153564985841
276.588628762542,16.5792874087091
276.983277591973,17.8255048647046
277.377926421405,19.1524083468254
277.772575250836,20.5576630204437
278.167224080268,22.0381638947105
278.561872909699,23.5900076658784
278.95652173913,25.2084732644864
279.351170568562,26.8880120479764
279.745819397993,28.6222484755318
280.140468227425,30.4039919704786
280.535117056856,32.2252605187516
280.929765886288,34.0773163717352
281.324414715719,35.9507140209976
281.71906354515,37.8353603946254
282.113712374582,39.7205869941502
282.508361204013,41.5952334522883
282.903010033445,43.4477417501423
283.297658862876,45.2662600937992
283.692307692308,47.0387552203452
284.086956521739,48.7531316881476
284.481605351171,50.3973565117909
284.876254180602,51.9595873339407
285.270903010033,53.4283021899038
285.665551839465,54.7924288204191
286.060200668896,56.0414714281361
286.454849498328,57.1656327563732
286.849498327759,58.1559293970242
287.244147157191,59.00429830884
287.638795986622,59.703692647398
288.033444816053,60.2481651723715
288.428093645485,60.6329377034881
288.822742474916,60.8544553398916
289.217391304348,60.9104244334823
289.612040133779,60.7998336092104
290.006688963211,60.522957447403
290.401337792642,60.0813427775162
290.795986622074,59.4777778712869
291.190635451505,58.7162451579121
291.585284280936,57.8018584064333
291.979933110368,56.7407856229734
292.374581939799,55.5401591853703
292.769230769231,54.2079749782572
293.163879598662,52.752982491789
293.558528428094,51.1845680021573
293.953177257525,49.5126330580268
294.347826086957,47.7474705517271
294.742474916388,45.8996406563854
295.137123745819,43.979848860571
295.531772575251,41.998828232202
295.926421404682,39.9672278964734
296.321070234114,37.89550952272
296.715719063545,35.7938533877396
297.110367892977,33.6720753245011
297.505016722408,31.5395555823025
297.899665551839,29.405180324869
298.294314381271,27.2772961843945
298.688963210702,25.1636779800082
299.083612040134,23.0715094063435
299.478260869565,21.007376209131
299.872909698997,18.9772710969087
300.267558528428,16.9866093970646
300.66220735786,15.0402542557668
301.056856187291,13.1425500091069
301.451505016722,11.2973622201222
301.846153846154,9.5081227853672
302.240802675585,7.77787846620439
302.635451505017,6.10934119384669
303.030100334448,4.50493853207044
303.42474916388,2.96686275518598
303.819397993311,1.49711710814276
304.214046822742,0.0975579565865771
304.608695652174,-1.23006829725217
305.003344481605,-2.48409446689947
305.397993311037,-3.66290872959101
305.792642140468,-4.76493817955626
306.1872909699,-5.78864007335509
306.581939799331,-6.73250083120869
306.976588628763,-7.59504264106452
307.371237458194,-8.37483730546673
307.765886287625,-9.07052677974752
308.160535117057,-9.68084967759879
308.555183946488,-10.2046728701494
308.94983277592,-10.641027180021
309.344481605351,-10.989146074535
309.739130434783,-11.2485061936807
310.133779264214,-11.4188685093034
310.528428093645,-11.5003189022355
310.923076923077,-11.4933069631135
311.317725752508,-11.398681869149
311.71237458194,-11.217724261321
312.107023411371,-10.9521731420247
312.501672240803,-10.604246929407
312.896321070234,-10.1766579383365
313.290969899666,-9.67261970584007
313.685618729097,-9.09584673730366
314.080267558528,-8.45054641510994
314.47491638796,-7.74140297993363
314.869565217391,-6.97355366296572
315.264214046823,-6.15255721130813
315.658862876254,-5.28435520529037
316.053511705686,-4.37522671236938
316.448160535117,-3.43173695474195
316.842809364549,-2.46068078435937
317.23745819398,-1.46902185758207
317.632107023411,-0.463828480624833
318.026755852843,0.547792845006281
318.421404682274,1.55876511140222
318.816053511706,2.56210864713769
319.210702341137,3.55100804081048
319.605351170569,4.51887709982495
320,5.45942084683531
